0,1,2,3,4,5,6,7,8,9,10,11,12,13,14,15,16,17,18,19,20,21,22,23,24,25,26,27,28,29,30,31,32,33,34,35,36,37,38,39,40,41,42,43,44,45,46,47,48,49,50,51,52,53,54,55,56,57,58,59,60,61,62,63,64,65,66,67,68,69,70,71,72,73,74,75,76,77,78,79,80,81,82,83,84,85,86,87,88,89,90,91,92,93,94,95,96,97,98,99,100,101,102,103,104,105,106,107,108,109,110,111,112,113,114,115,116,117,118,119,120,121,122,123,124,125,126,127,128,129,130,131,132,133,134,135,136,137,138,139,140,141,142,143,144,145,146,147,148,149,150,151,152,153,154,155,156,157,158,159,160,161,162,163,164,165,166,167,168,169,170,171,172,173,174,175,176,177,178,179,180,181,182,183,184,185,186,187,188,189,190,191,192,193,194,195,196,197,198,199,200,201,202,203,204,205,206,207,208,209,210,211,212,213,214,215,216,217,218,219,220,221,222,223,224,225,226,227,228,229,230,231,232,233,234,235,236,237,238,239,240,241,242,243,244,245,246,247,248,249,250,251,252,253,254,Target
0.1351355596398367,0.14305906147853298,0.1432217101946005,0.15782476829382253,0.14569096025237416,0.11018378632612791,0.09504980168989796,0.0943197593720293,0.07635220160005929,0.0709073238103195,0.07089992460324801,0.06711027048838014,0.04781256347510343,0.0468448935947805,0.046844729066390034,0.045920243623394974,0.028016569912994616,0.04801837740687187,0.07966962602871375,0.11469938397945034,0.1614092895035566,0.21598869467582427,0.26841114080595174,0.32231607326897693,0.38762364993796306,0.4431644136321027,0.5091484409943798,0.5718383381043286,0.6304518689782426,0.7021886159159405,0.7573163902917481,0.823852565003834,0.8927056941317653,0.9425149311930752,0.9791256995826809,0.9646023551344123,0.9151899215261454,0.8459334689215559,0.7799353454582252,0.7243566344043546,0.6523069109244948,0.5800080791492666,0.5222206990240026,0.45866298169775765,0.3861376182819636,0.31386116505759576,0.25660252141146644,0.1924994289673836,0.11996832563943238,0.04773764675322356,0.007309220334612565,0.04732033536210878,0.07012337278999992,0.07088255261560628,0.06276526694944629,0.060830318332891764,0.07083799452342854,0.07197903102354886,0.09190040706108515,0.10926398769490131,0.12010559826711198,0.14138463044467642,0.16556334599938394,0.1885665582367957,0.1884854108750118,0.15843608091097083,0.12163360715008897,0.07784678659439681,0.0778410524264781,0.11009304402382591,0.11900120031397154,0.11902479748401706,0.11902479748401706,0.11902479748401706,0.11902479748401706,0.11902479748401706,0.11902479748401706,0.11902479748401706,0.11902479748401706,0.11902479748401706,0.11890478139129224,0.10740640332980478,0.09544616899944103,0.11174809579581346,0.10697508801663957,0.09502799202890255,0.09496482952093821,0.0949545754081651,0.08980638104775762,0.07217990388923656,0.08854545627829724,0.09494965954495882,0.09496482952093821,0.09496482952093821,0.0955831807612606,0.11316998243740795,0.1333374209748346,0.1655705239072396,0.17803596714039704,0.1910217456062333,0.1909727925262259,0.17683030372790798,0.16544632246101143,0.145870137281642,0.1282980413931658,0.11721723916730697,0.09776673459761875,0.09305382104427329,0.07440971239252558,0.09048291069565106,0.08753431772261777,0.07097842391482434,0.05501532592117808,0.04687013472796275,0.05202044053835353,0.08341348296714157,0.10932265067686453,0.15828564609985163,0.2095660263410397,0.258908688683396,0.3141914736942373,0.3766652365421028,0.44344767217135983,0.4978221028323566,0.5468050381961347,0.5951159630359908,0.667211819083668,0.7336682199675386,0.7886466421602552,0.8594915145914839,0.9118226692759177,0.9737286790009194,0.9999999999999996,0.9869758383702227,0.9396627798779744,0.881029595156591,0.8086318311116272,0.7465484670933882,0.6874219225995799,0.6149431959700666,0.5424849170199573,0.4809302894808538,0.42125836986920584,0.34877390332753544,0.27621678107148684,0.20467129169064036,0.1505254463445609,0.08278139284633435,0.03760623486948411,0.0666181861462305,0.093140679607842,0.09496437848621353,0.09548520114272341,0.11252822476569424,0.11900932653682128,0.11902479748401706,0.11902479748401706,0.11907074025550957,0.1300223011541366,0.1610618208388499,0.16711770414160076,0.16080326709087922,0.12322356421282388,0.07512547794422009,0.04816121501902204,0.06570090304624454,0.08237132865650398,0.09480565096420746,0.09496482952093821,0.09496482952093821,0.09496482952093821,0.09496482952093821,0.09496482952093821,0.09496482952093821,0.09496482952093821,0.09496482952093821,0.09496482952093821,0.09494404141558022,0.08710439939891401,0.07119945405866934,0.07090486155785936,0.07090486155785936,0.07090486155785936,0.07090422613786984,0.06852989125737441,0.04855572748476744,0.06107780684005748,0.07085757575543195,0.07090486155785936,0.07099672362661202,0.08569153363416149,0.1010768195869689,0.11864882671582455,0.11902479748401706,0.11902276991783411,0.11597641978895279,0.09548960059644873,0.07646468503556081,0.06073570873091505,0.04692339426531644,0.04328190095234552,0.023786098731883865,0.019016067720783347,0.0,0.014975961826797946,0.023101530508779167,0.03924179505835923,0.04685132055026342,0.0553261110537524,0.07324393163808063,0.10448133192559927,0.1525825330297903,0.20141501374905557,0.26408846818164156,0.3172646411069624,0.3849717519925222,0.4382504637421234,0.5090797624369761,0.5816354152842975,0.6508196372396733,0.6980655298063136,0.7338533938468887,0.799652037749889,0.8616947443231102,0.9171371038015601,0.9552575859836074,0.9546334889258392,0.9152378717646461,0.8524571448731009,0.7969870024542245,0.7249585788914383,0.652652753819067,0.5947001435440726,0.5313128559421538,0.4587892862489089,0.38625045175686923,0.3209432234212364,0.2647847366384313,0.19262052974199273,0.12213185832462425,0.06966135628851067,0.03940757224631364,0.08007657859671458,0.09486884702665055,0.09496482952093821,0.09496729177339835,0.10041216956313814,0.11837972733510815,0.11910976965297726,0.13315416107224554,0.14312119954552616,0.15861345040888475,0.19420690043478084,0.21480225478570825,0.2073154578556804,MI
0.6760207866440098,0.6211360258713472,0.5599120739809931,0.49867957888239456,0.43745037607986914,0.3786266156426086,0.3312593493258431,0.27115663476316376,0.20992824353434036,0.1512488538714214,0.10389816768504456,0.06069433035219429,0.09986755100918288,0.13043606525502005,0.13334398280645798,0.13859583269418518,0.15138339005933554,0.16735845278228334,0.18394629620283132,0.17993767616950018,0.17884739793978266,0.16847235962550444,0.17618691873166048,0.16896067617103805,0.1346809834646323,0.09971205897132673,0.09089275573114142,0.11041809793805513,0.12942734160055736,0.12486515715750501,0.11601180262267263,0.11592528677777603,0.11595061359414371,0.12284664941790258,0.13457368102839462,0.14879932594889844,0.15550499230300874,0.16766223184001383,0.16140345427549052,0.1505597947942663,0.138558099885989,0.12212034057886534,0.09948536548871267,0.08436690214343256,0.07387964264050684,0.06402938722940554,0.07436732825094738,0.081249736466658,0.09192729141976441,0.09958848447299617,0.11349480872239948,0.11987814678872866,0.13943371578950403,0.17787494539603577,0.22669931693296608,0.2776552852235583,0.32554256865449727,0.3731761607969104,0.42407204629110185,0.47029603492444627,0.5188305589721294,0.5795720736881935,0.6400453040896039,0.6872902435668662,0.7249306304698795,0.7625712777508284,0.8130627660290988,0.8591920093282157,0.905388071140178,0.9544625821371024,0.9918940475454079,1.0,0.9560697906241336,0.9022442427970381,0.8509790598145801,0.7898923488546399,0.7291039092415748,0.6801095190967303,0.6235899219711842,0.562369565423078,0.5011370703244786,0.4401138698853573,0.38940407217451734,0.33482284190306544,0.2736143209781803,0.21238182587958176,0.15114965215632203,0.09229295145426608,0.08893954675459126,0.11379806744260046,0.11617840218425446,0.1278724668214104,0.13803748386491632,0.15029565930317146,0.15074123401757777,0.15388603743057372,0.16737814548257868,0.16777193802052226,0.15312971589260327,0.11930128517267446,0.08681574795892777,0.09734369668470766,0.11565068533163458,0.12871284097491387,0.12620349663742036,0.12899557721501065,0.12560059994925332,0.11606946810813934,0.12192523908479025,0.13305056016298789,0.13564788639987668,0.14950990588784174,0.15707673380599507,0.16192343082717287,0.15092917403543504,0.14452417334679657,0.12489902589545654,0.1136311421857421,0.09547466366821356,0.07905894780900358,0.05145159377250508,0.02937402885911844,0.02404638045366081,0.0,0.0015655236557958752,0.01135981536820907,0.011482699058218415,0.013092642647914321,0.03084828242466342,0.06359505091993967,0.11851067169965601,0.16466772548600916,0.21016949632266302,0.2556191964554353,0.3006126944796632,0.34363373199271807,0.39849556329022207,0.4468179164702355,0.5034254159481377,0.551288690305082,0.5990093774766878,0.6499455169572337,0.6991300229597108,0.7460601362024217,0.7956701002943474,0.8256837566763657,0.8050058070770683,0.7506506189601105,0.7007266134833268,0.6452906616689948,0.5841706314728028,0.5321035506568843,0.47897366016979737,0.41778715224712215,0.35655465714852363,0.29537717199399793,0.241199666731565,0.19010930007766635,0.12903192727951884,0.06830934230705843,0.03861909041578793,0.08310364706277218,0.09750974052853367,0.08805915686727239,0.10896024377840385,0.11986374525113197,0.13504149916127028,0.14938867279842816,0.1431134563470562,0.14699381832446612,0.15048320623259048,0.13908750396777858,0.11577895055543408,0.08568927989988762,0.07680158705419426,0.0920564556573984,0.11388011030428435,0.11592384488401164,0.11559524044961922,0.10408828014060933,0.09853594301145074,0.09851805572967942,0.09851805572967942,0.09851969182231057,0.10191362028106354,0.1152665665283581,0.11693143056238942,0.1307271741016467,0.13326575017791864,0.12579275119496236,0.11560751526983948,0.10226201494975218,0.08197659499339371,0.06408720987599148,0.049027434616858656,0.045186999364486,0.025667166625061633,0.011716209084437157,0.011505198341582812,0.018034360091176094,0.02866642002573938,0.029596808921114715,0.04735004510075891,0.07101645583903515,0.10954877786927009,0.15563460878314617,0.20521197791612744,0.2516304899462276,0.297944087549046,0.34374932173759065,0.39108825179074236,0.44826540127288217,0.49577970531276216,0.5440229626595232,0.5951448022333352,0.6436210379673906,0.6906432852389148,0.7411367625204197,0.791278102564394,0.8382231772514332,0.8777326992168315,0.8590932202158399,0.8066705363669069,0.7591466715727417,0.7006021540616687,0.6394478110480231,0.5864762626121696,0.5342275496686968,0.47769365022964605,0.4425138884992261,0.3857068926389857,0.3356049652354969,0.2803521680374961,0.21913992734531318,0.15823077014883413,0.10858017744508874,0.07680138570637585,0.1003670443799014,0.12304429143181528,0.1332187480076148,0.13670239469591783,0.15527616745821327,0.1677933610645317,0.1735330352346729,0.18520403936389274,0.18553628256661758,0.17825951442966437,0.14139226127515236,0.1064837031324366,0.10497918668288309,0.13006903256628366,0.148935308304468,0.1636420570420749,0.15508367270439694,0.1507488439784903,MI
0.21493558184626593,0.2364965621488926,0.23770297220770242,0.2356722270923326,0.21369988985369304,0.21129207481543233,0.21129203071023106,0.21129203071023106,0.21129203071023106,0.21129203071023106,0.21262733803353218,0.2339315485440734,0.23770335812820775,0.24064733881354705,0.26097700916496613,0.24028986564536048,0.2377036668646113,0.23770353454900928,0.23770353454900928,0.23770353454900928,0.23770353454900928,0.23770353454900928,0.23770353454900928,0.23841313151238275,0.25850010034132165,0.2410729916725991,0.2140586420726951,0.21129225123623385,0.21129203071023106,0.21129203071023106,0.21129203071023106,0.21129203071023106,0.21100724738893906,0.1946982699616182,0.18488264392107912,0.18484568770320653,0.17632167485880146,0.1585960322794957,0.14937423493194402,0.10919641931444612,0.09853782803604894,0.07639437614460842,0.05455982570836504,0.042475049868127,0.026526128400754523,0.026763627633966003,0.04673664501754615,0.032226097348571514,0.026413753204008295,0.030428190712480152,0.05130412874794743,0.0347300998553397,0.02748052562546288,0.04861585203555663,0.052822489441451737,0.05282300767755732,0.05282521293758613,0.0631404150028585,0.07900595934547106,0.08830275825380163,0.10548643031398885,0.12628506922383398,0.15806795658176132,0.19111547303713916,0.24798565998070643,0.3126790252539662,0.36635866490439106,0.41589519301049993,0.4706644777258928,0.5190895783347971,0.581935427771386,0.6251982636150428,0.6865426483615851,0.7382640427010747,0.789685594292588,0.8425686205769622,0.8876905217992217,0.8979222081801792,0.8885514757001678,0.8439086025845715,0.7921886637166997,0.7308619797249332,0.6944406960960174,0.669363501722823,0.6134214279886034,0.5696642030287284,0.5094822718300769,0.4461458445975879,0.4034823004890793,0.3416920487699935,0.27698011166424674,0.2205104983726578,0.21129379491825429,0.21129203071023106,0.2120910621234522,0.23306248832075926,0.24277203540958592,0.2583824757402384,0.2382612389226395,0.22410754971150126,0.21013281624213231,0.1849684442398596,0.1599853383578953,0.16553861282960103,0.18429879962636964,0.19070095608054327,0.21057327605772613,0.2112920196839312,0.21129203071023106,0.21129203071023106,0.21129203071023106,0.21129203071023106,0.21129203071023106,0.21129203071023106,0.21129203071023106,0.21129203071023106,0.21129203071023106,0.21129203071023106,0.21129203071023106,0.21129203071023106,0.21129203071023106,0.21129203071023106,0.21129203071023106,0.21129203071023106,0.21129203071023106,0.21129203071023106,0.21129203071023106,0.21129203071023106,0.21129203071023106,0.21129203071023195,0.21129203071023106,0.21129203071023106,0.21129203071023106,0.21129203071023106,0.21129203071023106,0.21129203071023106,0.21129203071023106,0.21129203071023106,0.21129203071023106,0.21129203071023106,0.21129203071023106,0.21129203071023106,0.21129203071023106,0.21129203071023106,0.21129203071023106,0.21129203071023106,0.21129203071023106,0.21129203071023106,0.21129203071023106,0.2112915124741237,0.2070592642764666,0.17840424004687971,0.15821259010827582,0.13930491321954364,0.10935254888104673,0.0878675201696355,0.05711237359892962,0.037193476416284454,0.017714952609155787,0.00015038030639491495,0.0,0.0,1.7642080232249668e-06,0.007819086149629229,0.025909734851881083,0.026449508948426903,0.03872756810461819,0.05275784670086647,0.05282300767755732,0.05307043929023347,0.07328667732607563,0.07922340245904813,0.07931338033389235,0.09354923272271343,0.10564473009451802,0.1188823881340042,0.1509940073197651,0.18297290965669788,0.22766793069812064,0.27145132293854246,0.31916456299950724,0.3737503350490732,0.4234703206895096,0.4769077716882508,0.5414050544314408,0.5876022774182195,0.6446734045859639,0.7038113236606209,0.7484503728102929,0.8121860554622469,0.8565639248278272,0.9152780161785454,0.9602611773256822,1.0,0.9916733121891266,0.9589357221650925,0.9157809901215552,0.8512790198075413,0.7865468224521246,0.7267433021055405,0.6828680167611267,0.6187798222931917,0.5615635896580402,0.5155063152534627,0.4509634812315415,0.38654130972481227,0.3383389180252756,0.283176557821724,0.22464286042789183,0.21129943214414837,0.213521131217,0.23538211400095665,0.23779224439933788,0.252517919990523,0.2640630608060741,0.2641150383877884,0.2638573010905967,0.2468892850660298,0.21419542781228618,0.1899655298486289,0.20940591211484438,0.211291688894927,0.21129203071023106,0.21129203071023106,0.21129203071023106,0.21129203071023106,0.21129203071023106,0.21129203071023106,0.21129203071023106,0.21129203071023106,0.21129203071023106,0.21129203071023106,0.21129203071023106,0.21129203071023106,0.21136068360080973,0.22510708768147403,0.23736150028801095,0.22110977380039643,0.21129414775985822,0.21129203071023106,0.21129203071023106,0.21129203071023106,0.2112939713390558,0.22011044533012925,0.23731025839491515,0.23770353454900928,0.23770353454900928,0.23773643169516934,0.24973097251054366,0.2549497618500025,0.23784369892842694,0.23770353454900928,0.23770353454900928,0.23770353454900928,0.23770353454900928,MI
0.42963861896506916,0.5065582869248333,0.5680447362776393,0.6399340304234551,0.7060986244991829,0.770605565820647,0.843067374155174,0.9010560556087475,0.956113936329281,0.9673601046756533,0.9197089381928913,0.8567859784740799,0.7811642038079762,0.7075883236712954,0.6401107799573005,0.5570013727642609,0.4935189502988422,0.4153646374931306,0.345266756555187,0.27445285220908744,0.20611451728886276,0.16560112935059745,0.22224722959757326,0.27798904102407995,0.30841849725982495,0.3424811742137619,0.3268616091935508,0.319522546339976,0.3195176697611002,0.318501139000559,0.2977179150030098,0.29074544686039605,0.26789258763012924,0.23466978086412293,0.195585761051416,0.20435415626131803,0.21566329280123409,0.251325528944661,0.28036587376941746,0.30837302908341524,0.3162198968754302,0.29350712673910095,0.29215196504614926,0.29215196504614926,0.29196950861237525,0.27782499639489,0.26492577114993754,0.2771160209203911,0.2842686838643278,0.2663998577918596,0.28726758679264197,0.2921446873339235,0.29215196504614926,0.2921507404234971,0.2885691936408774,0.26195279005809446,0.23756054545320637,0.21032181956282425,0.18224805542226807,0.16076401990960676,0.18878688641167773,0.23578758776415132,0.27788827538517147,0.31434360194602373,0.34046560652351854,0.37346575441936025,0.39206905758650734,0.42589177182948035,0.4289801429023763,0.4289733960318056,0.4239808681279227,0.4026542401247335,0.40139355258220366,0.3864478639567537,0.37518816891215057,0.3953920424519266,0.3853368917878246,0.4039642962209715,0.4679662095975816,0.5301989510367724,0.5906593742175348,0.6544098869875992,0.7262844764858993,0.78743992691175,0.8467147492080223,0.8663005345823667,0.8500461726311856,0.7934916543071777,0.7318803096867903,0.651501597027984,0.5673954476867689,0.4924067616319858,0.4261796268197582,0.3428023648469143,0.2786857436098824,0.20232804064165766,0.16818903881535352,0.22038291028789647,0.28499248987076964,0.32927388540513114,0.36706238994679996,0.3742320803409731,0.37424953933748295,0.37424953933748295,0.37424856304785337,0.3714855447484302,0.34576587901463984,0.3177386321535227,0.28137702937286146,0.23165974632068842,0.2053424867627962,0.19389555123911872,0.2212075446961732,0.26146345663073145,0.30267843537181527,0.31929906969406474,0.3191688611216996,0.30163662038966255,0.28949879881146856,0.26677021657132105,0.2544204034691253,0.23754807828695235,0.23742024885192858,0.23742024885192858,0.23746108228508866,0.24793744381803862,0.2644849569430825,0.2629737979168789,0.2412892357327321,0.23521703697086238,0.21271815748870626,0.19135217249250847,0.16321216567408037,0.12242167021505512,0.0640764522306494,0.046245813695333204,0.06639973928123588,0.10097069524879654,0.13649068311889057,0.18636620901691536,0.2342366539041114,0.2763235017027199,0.3133469925563386,0.3195051638950561,0.3195216309162836,0.325723086269468,0.3461666480300627,0.34639326681513705,0.3264735782292494,0.3372903252730053,0.334245645962147,0.31961655923219023,0.32303678720886797,0.34956654400610176,0.3983414453084668,0.46237198471991814,0.5250739706850016,0.602215160058245,0.6655879244333427,0.742280645602432,0.7992403688394241,0.8625739937375121,0.9263831208852666,0.9439117576993326,0.9034603726800015,0.8386781966391768,0.7680911736555602,0.6907028413704817,0.6265172017208585,0.5452662724878881,0.4831996494191406,0.4022346538550332,0.32750677982224286,0.26110171213362143,0.18825194744586415,0.166692771322694,0.2275432076042092,0.29002229511460254,0.3191318361027573,0.3195178231432614,0.3195178231432614,0.3195178231432614,0.3192064591576509,0.3024399150595558,0.292160796684958,0.28253181003434413,0.24291326709922512,0.1983474284698774,0.1568807642550052,0.16388171457686163,0.20312910776137372,0.2379582933891191,0.26255967068243624,0.2647853838617067,0.2647861069490389,0.2647861069490389,0.2647602885863183,0.25398283708753944,0.21323647045597216,0.22557743914823636,0.23735416729133707,0.23742024885192858,0.23767356601841794,0.25546437869754435,0.26475657585830525,0.26478571984167854,0.2632734488492723,0.24167965110408485,0.21977594222351815,0.1843131331722434,0.1562515795149162,0.11955523683184133,0.07327638659836744,0.03513036332225994,0.0,0.04294951106796585,0.08146763585034744,0.12768842397346525,0.16480007244010686,0.19643519015189614,0.24646513771393508,0.2773401115128946,0.3131195476797455,0.33397536405825257,0.3689413782713915,0.3742409526029915,0.37424953933748295,0.37424953933748295,0.37368749798875545,0.3534194485500626,0.34691538714078085,0.3564447536047517,0.3847702916656637,0.4364494407606889,0.5068363953138721,0.5754772912773118,0.6462911956234105,0.7153220591561595,0.7778087358042312,0.8509024784682264,0.9132246846999896,0.966634074943828,1.0,0.9774199948860129,0.9100309691372948,0.826172546258757,0.7559619568072335,0.6850165766582421,0.6028105333764442,0.5404045864853568,0.4603896884525849,0.39364038969112425,0.3195229161418549,0.2542202227470014,0.19215711334525398,MI
0.7763447587107435,0.7417458617792452,0.6938316340602482,0.6448799294725798,0.5999824534409708,0.6002946028969962,0.5948054052708529,0.5932118903557528,0.6042798203918478,0.6046941688105134,0.6046942133520754,0.6046942133520754,0.6048200122015972,0.6138541558385229,0.6097136747214891,0.6048943778050333,0.6172478372094345,0.6432066085690713,0.6796578325901477,0.7153961513982598,0.7670338744296812,0.8096326299564418,0.8438833096227043,0.8833131151706417,0.8990126281340025,0.9053300638992705,0.877494857217394,0.8431423247772867,0.8061971619789059,0.7776912737421773,0.7506799401657069,0.7343189044379343,0.7160281035548897,0.6964084889284821,0.6784312000077612,0.6548072033568242,0.6286725220032543,0.5835237954838348,0.5371442736965748,0.48543725005939375,0.4258700970911602,0.38247724810225403,0.3405678635375793,0.2892007068462852,0.22741761972823493,0.17492494626297717,0.11421820392108639,0.10705359263394199,0.1527817519273338,0.2013980911925084,0.24330976607239707,0.3028075294562522,0.364158505659276,0.41780139000373717,0.48238213736578617,0.5397143679459191,0.5969777652097155,0.6603407733831843,0.712813255356719,0.7746185301165878,0.8270467923564531,0.8903515547640759,0.9433395194748737,0.9930396593775308,1.0,0.9587580808321134,0.9062153734949181,0.8452601217743534,0.7918606550151055,0.7311431534276855,0.6779861622615297,0.6246728759741424,0.5787928307734753,0.5723830568498753,0.5724350738220094,0.5812470477719387,0.6176930465435628,0.656972340959741,0.700342645127169,0.7396921409820134,0.7659382834935577,0.7782390349304604,0.7373852508599739,0.6858908126241308,0.6414088118263779,0.6207624888944383,0.6072131327044645,0.6048156765061905,0.6128542768458485,0.6121335946846966,0.6205960040415408,0.6232458149370612,0.6272219409278974,0.5988155127249946,0.573152953944037,0.556739973115687,0.5592742775865625,0.5726667935017997,0.587583597063627,0.6147600094709116,0.6543798252463877,0.6982205122500038,0.7336501820535717,0.776641620410206,0.8202341820379235,0.8470660371000815,0.8736130207530795,0.860495854738017,0.8385164622466412,0.8049503774559574,0.7761171469522141,0.7479332192879506,0.7176936676052432,0.6920824757449942,0.6690173328124689,0.6540897271723649,0.6343363634453558,0.624812055939989,0.585181005545246,0.552721953101142,0.5123306327645039,0.45589338024128967,0.4038866158997032,0.3518596581215059,0.2928087508222861,0.23869713349755362,0.17869256709236003,0.12431621701555962,0.06014591754440657,0.008296685936638237,0.0,0.04817838375713901,0.10349956047216136,0.15215480531674253,0.19791233923253593,0.2585314949706601,0.31193096172990886,0.3733531648611539,0.42966411654810877,0.4878936211561564,0.5478200114385601,0.6025173304759845,0.6673620019514837,0.723003465705661,0.7819369398388676,0.841091607435017,0.8933026968273139,0.9232047806250634,0.9002432763037271,0.852548212875957,0.7889051026257108,0.7256698581715639,0.6730894707238679,0.61431519436371,0.5622564316271865,0.5277156723469605,0.5238625748979739,0.5199232566875214,0.5246818883240709,0.5523922243827917,0.586373487161103,0.6380239117327506,0.6770829777372556,0.7090955825194807,0.7313595948752285,0.7046048965844811,0.6565747422903678,0.6125999011922132,0.570764464783887,0.5563680506319235,0.5618143504201338,0.5605705696179011,0.5592260644954403,0.5715179986848229,0.5756169293718472,0.5877393033676963,0.5885325215035935,0.5885079856221731,0.5835166035596937,0.574205115737429,0.586539182693051,0.5943138563586228,0.6307137853950389,0.6628549386506819,0.7019554400022852,0.7388668565230976,0.7833409930557709,0.8223842537327526,0.8523407279097124,0.8601207829117619,0.8443214297648178,0.8126815117534552,0.7800975676899444,0.7514122219396864,0.7249645811961543,0.7008570046207843,0.6858175353924687,0.6695149210621598,0.6543924344406329,0.6350926462436504,0.6016538372837243,0.569435667050465,0.5154913624895201,0.46312086274481734,0.408052412278606,0.34994274183845553,0.28491143792944573,0.2288550772281761,0.17031167339549436,0.1108932443533246,0.07192619544282763,0.10114137110226773,0.15308608175286897,0.19027452873026585,0.23955637071479519,0.29379541235024087,0.3495674814421257,0.40802525244651777,0.46772337290630084,0.5226470481316463,0.5868124162499537,0.6396279144359283,0.7020377909006728,0.7609995540070797,0.816628093615634,0.8750772488293692,0.9297604133710355,0.9679651852196356,0.945860606402066,0.896712580540306,0.8374173991650009,0.7875228189291192,0.7496883542638133,0.7029842107168798,0.6483467734877397,0.5931333701543617,0.56453023353885,0.5709006069570468,0.5723859169208363,0.5794473640324656,0.6129147718457006,0.65033172357938,0.7010106712936874,0.7405685236905457,0.7746743520731907,0.778277597879359,0.7436381464973079,0.6948791319376992,0.6525704290810812,0.6188611436470643,0.6051671036053476,0.6050061267267699,0.6154852663813672,0.618846037288328,0.612701387663662,MI
0.21493558184626593,0.2364965621488926,0.23770297220770242,0.2356722270923326,0.21369988985369304,0.21129207481543233,0.21129203071023106,0.21129203071023106,0.21129203071023106,0.21129203071023106,0.21262733803353218,0.2339315485440734,0.23770335812820775,0.24064733881354705,0.26097700916496613,0.24028986564536048,0.2377036668646113,0.23770353454900928,0.23770353454900928,0.23770353454900928,0.23770353454900928,0.23770353454900928,0.23770353454900928,0.23841313151238275,0.25850010034132165,0.2410729916725991,0.2140586420726951,0.21129225123623385,0.21129203071023106,0.21129203071023106,0.21129203071023106,0.21129203071023106,0.21100724738893906,0.1946982699616182,0.18488264392107912,0.18484568770320653,0.17632167485880146,0.1585960322794957,0.14937423493194402,0.10919641931444612,0.09853782803604894,0.07639437614460842,0.05455982570836504,0.042475049868127,0.026526128400754523,0.026763627633966003,0.04673664501754615,0.032226097348571514,0.026413753204008295,0.030428190712480152,0.05130412874794743,0.0347300998553397,0.02748052562546288,0.04861585203555663,0.052822489441451737,0.05282300767755732,0.05282521293758613,0.0631404150028585,0.07900595934547106,0.08830275825380163,0.10548643031398885,0.12628506922383398,0.15806795658176132,0.19111547303713916,0.24798565998070643,0.3126790252539662,0.36635866490439106,0.41589519301049993,0.4706644777258928,0.5190895783347971,0.581935427771386,0.6251982636150428,0.6865426483615851,0.7382640427010747,0.789685594292588,0.8425686205769622,0.8876905217992217,0.8979222081801792,0.8885514757001678,0.8439086025845715,0.7921886637166997,0.7308619797249332,0.6944406960960174,0.669363501722823,0.6134214279886034,0.5696642030287284,0.5094822718300769,0.4461458445975879,0.4034823004890793,0.3416920487699935,0.27698011166424674,0.2205104983726578,0.21129379491825429,0.21129203071023106,0.2120910621234522,0.23306248832075926,0.24277203540958592,0.2583824757402384,0.2382612389226395,0.22410754971150126,0.21013281624213231,0.1849684442398596,0.1599853383578953,0.16553861282960103,0.18429879962636964,0.19070095608054327,0.21057327605772613,0.2112920196839312,0.21129203071023106,0.21129203071023106,0.21129203071023106,0.21129203071023106,0.21129203071023106,0.21129203071023106,0.21129203071023106,0.21129203071023106,0.21129203071023106,0.21129203071023106,0.21129203071023106,0.21129203071023106,0.21129203071023106,0.21129203071023106,0.21129203071023106,0.21129203071023106,0.21129203071023106,0.21129203071023106,0.21129203071023106,0.21129203071023106,0.21129203071023106,0.21129203071023195,0.21129203071023106,0.21129203071023106,0.21129203071023106,0.21129203071023106,0.21129203071023106,0.21129203071023106,0.21129203071023106,0.21129203071023106,0.21129203071023106,0.21129203071023106,0.21129203071023106,0.21129203071023106,0.21129203071023106,0.21129203071023106,0.21129203071023106,0.21129203071023106,0.21129203071023106,0.21129203071023106,0.21129203071023106,0.2112915124741237,0.2070592642764666,0.17840424004687971,0.15821259010827582,0.13930491321954364,0.10935254888104673,0.0878675201696355,0.05711237359892962,0.037193476416284454,0.017714952609155787,0.00015038030639491495,0.0,0.0,1.7642080232249668e-06,0.007819086149629229,0.025909734851881083,0.026449508948426903,0.03872756810461819,0.05275784670086647,0.05282300767755732,0.05307043929023347,0.07328667732607563,0.07922340245904813,0.07931338033389235,0.09354923272271343,0.10564473009451802,0.1188823881340042,0.1509940073197651,0.18297290965669788,0.22766793069812064,0.27145132293854246,0.31916456299950724,0.3737503350490732,0.4234703206895096,0.4769077716882508,0.5414050544314408,0.5876022774182195,0.6446734045859639,0.7038113236606209,0.7484503728102929,0.8121860554622469,0.8565639248278272,0.9152780161785454,0.9602611773256822,1.0,0.9916733121891266,0.9589357221650925,0.9157809901215552,0.8512790198075413,0.7865468224521246,0.7267433021055405,0.6828680167611267,0.6187798222931917,0.5615635896580402,0.5155063152534627,0.4509634812315415,0.38654130972481227,0.3383389180252756,0.283176557821724,0.22464286042789183,0.21129943214414837,0.213521131217,0.23538211400095665,0.23779224439933788,0.252517919990523,0.2640630608060741,0.2641150383877884,0.2638573010905967,0.2468892850660298,0.21419542781228618,0.1899655298486289,0.20940591211484438,0.211291688894927,0.21129203071023106,0.21129203071023106,0.21129203071023106,0.21129203071023106,0.21129203071023106,0.21129203071023106,0.21129203071023106,0.21129203071023106,0.21129203071023106,0.21129203071023106,0.21129203071023106,0.21129203071023106,0.21136068360080973,0.22510708768147403,0.23736150028801095,0.22110977380039643,0.21129414775985822,0.21129203071023106,0.21129203071023106,0.21129203071023106,0.2112939713390558,0.22011044533012925,0.23731025839491515,0.23770353454900928,0.23770353454900928,0.23773643169516934,0.24973097251054366,0.2549497618500025,0.23784369892842694,0.23770353454900928,0.23770353454900928,0.23770353454900928,0.23770353454900928,MI
0.7763447587107435,0.7417458617792452,0.6938316340602482,0.6448799294725798,0.5999824534409708,0.6002946028969962,0.5948054052708529,0.5932118903557528,0.6042798203918478,0.6046941688105134,0.6046942133520754,0.6046942133520754,0.6048200122015972,0.6138541558385229,0.6097136747214891,0.6048943778050333,0.6172478372094345,0.6432066085690713,0.6796578325901477,0.7153961513982598,0.7670338744296812,0.8096326299564418,0.8438833096227043,0.8833131151706417,0.8990126281340025,0.9053300638992705,0.877494857217394,0.8431423247772867,0.8061971619789059,0.7776912737421773,0.7506799401657069,0.7343189044379343,0.7160281035548897,0.6964084889284821,0.6784312000077612,0.6548072033568242,0.6286725220032543,0.5835237954838348,0.5371442736965748,0.48543725005939375,0.4258700970911602,0.38247724810225403,0.3405678635375793,0.2892007068462852,0.22741761972823493,0.17492494626297717,0.11421820392108639,0.10705359263394199,0.1527817519273338,0.2013980911925084,0.24330976607239707,0.3028075294562522,0.364158505659276,0.41780139000373717,0.48238213736578617,0.5397143679459191,0.5969777652097155,0.6603407733831843,0.712813255356719,0.7746185301165878,0.8270467923564531,0.8903515547640759,0.9433395194748737,0.9930396593775308,1.0,0.9587580808321134,0.9062153734949181,0.8452601217743534,0.7918606550151055,0.7311431534276855,0.6779861622615297,0.6246728759741424,0.5787928307734753,0.5723830568498753,0.5724350738220094,0.5812470477719387,0.6176930465435628,0.656972340959741,0.700342645127169,0.7396921409820134,0.7659382834935577,0.7782390349304604,0.7373852508599739,0.6858908126241308,0.6414088118263779,0.6207624888944383,0.6072131327044645,0.6048156765061905,0.6128542768458485,0.6121335946846966,0.6205960040415408,0.6232458149370612,0.6272219409278974,0.5988155127249946,0.573152953944037,0.556739973115687,0.5592742775865625,0.5726667935017997,0.587583597063627,0.6147600094709116,0.6543798252463877,0.6982205122500038,0.7336501820535717,0.776641620410206,0.8202341820379235,0.8470660371000815,0.8736130207530795,0.860495854738017,0.8385164622466412,0.8049503774559574,0.7761171469522141,0.7479332192879506,0.7176936676052432,0.6920824757449942,0.6690173328124689,0.6540897271723649,0.6343363634453558,0.624812055939989,0.585181005545246,0.552721953101142,0.5123306327645039,0.45589338024128967,0.4038866158997032,0.3518596581215059,0.2928087508222861,0.23869713349755362,0.17869256709236003,0.12431621701555962,0.06014591754440657,0.008296685936638237,0.0,0.04817838375713901,0.10349956047216136,0.15215480531674253,0.19791233923253593,0.2585314949706601,0.31193096172990886,0.3733531648611539,0.42966411654810877,0.4878936211561564,0.5478200114385601,0.6025173304759845,0.6673620019514837,0.723003465705661,0.7819369398388676,0.841091607435017,0.8933026968273139,0.9232047806250634,0.9002432763037271,0.852548212875957,0.7889051026257108,0.7256698581715639,0.6730894707238679,0.61431519436371,0.5622564316271865,0.5277156723469605,0.5238625748979739,0.5199232566875214,0.5246818883240709,0.5523922243827917,0.586373487161103,0.6380239117327506,0.6770829777372556,0.7090955825194807,0.7313595948752285,0.7046048965844811,0.6565747422903678,0.6125999011922132,0.570764464783887,0.5563680506319235,0.5618143504201338,0.5605705696179011,0.5592260644954403,0.5715179986848229,0.5756169293718472,0.5877393033676963,0.5885325215035935,0.5885079856221731,0.5835166035596937,0.574205115737429,0.586539182693051,0.5943138563586228,0.6307137853950389,0.6628549386506819,0.7019554400022852,0.7388668565230976,0.7833409930557709,0.8223842537327526,0.8523407279097124,0.8601207829117619,0.8443214297648178,0.8126815117534552,0.7800975676899444,0.7514122219396864,0.7249645811961543,0.7008570046207843,0.6858175353924687,0.6695149210621598,0.6543924344406329,0.6350926462436504,0.6016538372837243,0.569435667050465,0.5154913624895201,0.46312086274481734,0.408052412278606,0.34994274183845553,0.28491143792944573,0.2288550772281761,0.17031167339549436,0.1108932443533246,0.07192619544282763,0.10114137110226773,0.15308608175286897,0.19027452873026585,0.23955637071479519,0.29379541235024087,0.3495674814421257,0.40802525244651777,0.46772337290630084,0.5226470481316463,0.5868124162499537,0.6396279144359283,0.7020377909006728,0.7609995540070797,0.816628093615634,0.8750772488293692,0.9297604133710355,0.9679651852196356,0.945860606402066,0.896712580540306,0.8374173991650009,0.7875228189291192,0.7496883542638133,0.7029842107168798,0.6483467734877397,0.5931333701543617,0.56453023353885,0.5709006069570468,0.5723859169208363,0.5794473640324656,0.6129147718457006,0.65033172357938,0.7010106712936874,0.7405685236905457,0.7746743520731907,0.778277597879359,0.7436381464973079,0.6948791319376992,0.6525704290810812,0.6188611436470643,0.6051671036053476,0.6050061267267699,0.6154852663813672,0.618846037288328,0.612701387663662,MI
0.3671844211613222,0.3864391297218437,0.4168604080228637,0.4583358491420797,0.4908515461184888,0.5320994557335772,0.5511752855501899,0.5475268409968055,0.5053564651204341,0.44403106838011075,0.4005662911954917,0.3751704235899287,0.3742019725719534,0.3742019725719534,0.3742019725719534,0.3749941116436939,0.3939068087389779,0.4176168239644906,0.45253385534359625,0.4955091645481011,0.5461741618801779,0.5893718677199611,0.632484036515589,0.6707320449162704,0.6653409681456384,0.6234163861978881,0.5844399886499647,0.5413319344509326,0.49632688434964534,0.44285002257256467,0.3992885954618015,0.3561651146407798,0.31306913831729544,0.2751842422960391,0.2464285843159888,0.22187107945282802,0.20018228736740307,0.1856053829323394,0.18460840419169777,0.2179375537040742,0.20882984581930275,0.18706333784357598,0.21608853587104138,0.2826483256887182,0.36134686359847334,0.4299540806148108,0.5156433456914828,0.6018891941596256,0.6879269987262702,0.7589035052221065,0.8118533578366809,0.8102920771582762,0.7628369471400283,0.6856384233874988,0.6200900791659598,0.5359627051966078,0.45867018810368654,0.3936528560525532,0.32950853087848175,0.2698979407654707,0.25209023414062104,0.2715673072542528,0.2729556360106815,0.2852664344956932,0.30045641534605894,0.3267345390953982,0.3702424757428564,0.40676680230155204,0.44958130307482813,0.4746040885545493,0.4593731466120121,0.4148137008141908,0.35779558519731447,0.30893797277428936,0.29871117641638945,0.31657730377255655,0.3235346023164065,0.33320811025137465,0.3501240857766832,0.3708812764562084,0.3867961343196016,0.42243988400377175,0.45133029870712305,0.4888335195126081,0.5416867395679348,0.5910694862803516,0.6333754791149926,0.6523289873683029,0.6522581543939059,0.6291696971714758,0.5863384282137107,0.5432292072545173,0.5045857779740808,0.4665227210241327,0.4066592747638089,0.3711027907182989,0.34548839401432696,0.31172789753805974,0.2895147570107972,0.2731344999197254,0.278024161620793,0.29735552049191094,0.29835272375656485,0.3184107126223359,0.3775512964918195,0.4554269373207913,0.5224214284658841,0.6076944279155572,0.6802869937209857,0.7548098172250808,0.8206988262281238,0.8696430006276663,0.9032988522574414,0.8794789896510147,0.817241581195256,0.735355126091664,0.6697612992872561,0.5921663830148103,0.5247462859379302,0.4578302307600741,0.38554035681117815,0.33487992089942553,0.3465573876729455,0.3488884117625122,0.3584211144386127,0.3754232219139859,0.39875929148773404,0.43401939465653383,0.46641433918901454,0.5078243796671749,0.5404214252550692,0.5816203967417928,0.6012901926454419,0.5811857041036625,0.5341603734916966,0.4768167318032108,0.4317657500405958,0.42617206473035596,0.4461431261717741,0.45021871955558757,0.45619738745230043,0.4754392051891192,0.4956746734933719,0.5293770602563446,0.562158590518425,0.603129939188277,0.6462581293870691,0.6893614161584067,0.7249827953985011,0.7285273616121271,0.7094133948188035,0.6748173864523843,0.6364543893660728,0.5933501490396345,0.5502199914279013,0.5070944121869423,0.46400841180023766,0.428536485196926,0.40285885744209127,0.3735103115842837,0.3518417883294087,0.34960975682192386,0.3696158002763057,0.39580609110734466,0.38376951990702723,0.36015797261974436,0.4094878297640627,0.48716851139191286,0.5709644405658083,0.6366492559985253,0.7205283227296468,0.805960073843361,0.8734690489625048,0.951369523993812,1.0000000000000004,0.9939575162804943,0.9247161311260368,0.8573799187101874,0.7763447158281394,0.7098856495906616,0.6282808978840797,0.5624282783142385,0.4860013116877675,0.4179360365615765,0.3869811873437441,0.40134318957305615,0.42212490680001524,0.42489492189422906,0.43323038443464457,0.44257266498935843,0.42532930142014846,0.43589067546098414,0.4759859995602693,0.4988564300280385,0.4720004470743553,0.4219658590236439,0.36477074298850587,0.3151436603104121,0.27467245016956143,0.2555887225179707,0.22071017989871367,0.19824896297955918,0.19856590829445553,0.21406390311436896,0.1978890114140497,0.20404841775636173,0.20826628967676575,0.2035113485756841,0.2389105383505581,0.28030484788838583,0.32763766338848965,0.3707870237018063,0.41848818599998827,0.4494377423799816,0.4423060507321126,0.41372159517128937,0.3722629918603846,0.3226342304123544,0.2734168233252947,0.23027466681382025,0.18715895968484242,0.14403032819669948,0.10099272269524029,0.0659889981522701,0.030175737964523996,0.015262676734322245,0.0,0.018668192796965855,0.050445741497015195,0.10777232594712949,0.1202947990823473,0.11941158040090727,0.10244174511085014,0.050095258560945766,0.008792755471507263,0.01951125207391291,0.07769604060347746,0.1435070232492972,0.22561210094767103,0.31159894174000113,0.38198491762847686,0.45906104212917187,0.5449348181948239,0.6140106778335466,0.6861335632761159,0.7240372890685243,0.6828923657853267,0.6015343613896245,0.5355720704924214,0.4508466848203345,0.37610543532351537,0.3059660152656476,0.24066122860832762,0.1697678215031857,0.10849532370899206,MI
0.0316265541758578,0.0316265541758578,0.0316265541758578,0.03155112623299772,0.023785588173173,0.02440926277224209,0.031525878915624084,0.0257573164303162,0.016575585483106448,0.02866216030088875,0.031744339487183026,0.042056753724638796,0.07144235691090284,0.10961078633141152,0.15184649125178673,0.20176297959064193,0.24483697828707385,0.29922025642420724,0.34813884523356897,0.3954100015688131,0.4511692411328463,0.49766425354777466,0.5474421020293176,0.6033989354679501,0.6560435289344855,0.7000345566281787,0.755480101341738,0.8114855409566046,0.8674911236244647,0.9230423741873186,0.9662761658070416,0.9975613749151369,0.9966364877759593,0.9614538645999966,0.9099551213859054,0.8654936561520645,0.813415291969116,0.7574201063352044,0.7034864710706552,0.6602280853514175,0.6053397046945102,0.54933440958495,0.49333575974807475,0.44118860574181085,0.39682146724675826,0.34125116773081565,0.2852529502462722,0.23332283882985871,0.18880409359843586,0.13348353115786038,0.08822256786785321,0.05186938669517449,0.04782910785628802,0.058971411566898,0.06376558784775277,0.07814258295889243,0.09477595935368877,0.09538273879810166,0.09526217749337373,0.08448723021916793,0.05806532780128526,0.04867246901612576,0.06121670120090972,0.06351898919440702,0.06885466017504793,0.07916897796760924,0.0794437603567113,0.0789998130903804,0.06808855432892846,0.07578364951019978,0.07608486969465078,0.06524099453353793,0.07741131680448188,0.07740398119333847,0.06465429834387137,0.06751631674271685,0.0789875843040746,0.07944375164282347,0.07955010816641561,0.08817121882142942,0.09532035679427864,0.09538290944507288,0.09538290944507288,0.09538290944507288,0.09538290944507288,0.09529691716000555,0.08683899461107103,0.07973950704225219,0.0907245531704266,0.08900652504194984,0.07973950704225219,0.08894571860084799,0.0916770240461715,0.09321514786176932,0.09539464691929433,0.1003763271054745,0.11100928216863082,0.11312408094825033,0.13365733639196442,0.1549602232855083,0.18146259200002213,0.1963227033024757,0.2047759374451621,0.18405753593605034,0.15601683055579718,0.12315942849627026,0.0959398620927221,0.08040558974886558,0.06403673163473167,0.047793850053863274,0.04756564299316146,0.04732748669191844,0.03731422952334773,0.03164599344421504,0.0316265541758578,0.03135986403990154,0.021112448608227474,0.015705480203660027,0.015927273848387102,0.029583545338547346,0.06044749524318638,0.09979371018365146,0.14165621705096765,0.18809655960679494,0.23510298555886866,0.28799965935458216,0.33170058821004966,0.38706767929138053,0.4415614187867827,0.4846401271302758,0.5391462490789376,0.594990411190436,0.6413978867407955,0.6912669579548241,0.7471785706772933,0.7956143798714272,0.8433830600256504,0.8982739931523507,0.9415162769810554,0.986220289009609,1.0,0.9764087139462871,0.9334653687811487,0.8776796392214083,0.8216741429662688,0.7661491677819945,0.721742927117313,0.6695890656965533,0.6135908146994145,0.5575852320315549,0.5018361488443972,0.4559943536571027,0.4054890492775831,0.3495019901774197,0.2935358506617751,0.24348433398277525,0.1972519321615529,0.14142629880045865,0.08958936321297672,0.04570732489115725,0.023658177623417043,0.03294486062045765,0.046822036263919564,0.060990405080602716,0.06439268412163734,0.08209364460653834,0.10666801016965133,0.11625124730476077,0.1265562953923367,0.11488925474405276,0.08891286819345146,0.07946987802664607,0.07944382062776922,0.07944382062776922,0.07944382062776922,0.079509496944834,0.08736437880670511,0.09530616095943722,0.09538290944507288,0.09538283029392458,0.09491240620402142,0.08336629663302197,0.07945138145051045,0.0783270624771748,0.06567673060257473,0.06350621317140437,0.06476703965154851,0.08391687723540864,0.1041431855187831,0.12475059390055954,0.14657920419059023,0.15868331724777462,0.15247486143938938,0.12101036391278219,0.09045000276011583,0.0627185666496004,0.041658221944309126,0.03178384185323457,0.0316265541758578,0.0316265541758578,0.0316265541758578,0.0316265541758578,0.031518838261875626,0.022576018867494607,0.01570038397936413,0.010936670172804863,0.0,0.0031516691414883446,0.017021636896988657,0.041693129663595396,0.07879270905062663,0.11875703798397907,0.1607858035783396,0.21461643167002142,0.27061883953112975,0.32550722018803935,0.368765605907277,0.42269924117182534,0.47813534938002444,0.522199274402336,0.5747805135883,0.6307788575642346,0.6843344378664997,0.7272667245947373,0.7642614614933052,0.8069325741819449,0.8520819920256204,0.9028385779334434,0.9473015655869474,0.9800117075542354,0.9777427339419349,0.940118721880101,0.8971181293615009,0.8426397357829667,0.7987978257058455,0.7459770720177499,0.6899777055135345,0.6364972898839052,0.593061449912271,0.5378957693748854,0.4818901867070262,0.4258846040391666,0.3698790213713057,0.3138734387034461,0.2578680804181994,0.20269910476712427,0.15914176526057444,0.1058096132150288,0.05541686187271555,0.038452885900614575,0.051005796370063194,0.06307360744471024,0.07163158563058936,0.07945329503766896,0.08722347002435793,MI
0.42963861896506916,0.5065582869248333,0.5680447362776393,0.6399340304234551,0.7060986244991829,0.770605565820647,0.843067374155174,0.9010560556087475,0.956113936329281,0.9673601046756533,0.9197089381928913,0.8567859784740799,0.7811642038079762,0.7075883236712954,0.6401107799573005,0.5570013727642609,0.4935189502988422,0.4153646374931306,0.345266756555187,0.27445285220908744,0.20611451728886276,0.16560112935059745,0.22224722959757326,0.27798904102407995,0.30841849725982495,0.3424811742137619,0.3268616091935508,0.319522546339976,0.3195176697611002,0.318501139000559,0.2977179150030098,0.29074544686039605,0.26789258763012924,0.23466978086412293,0.195585761051416,0.20435415626131803,0.21566329280123409,0.251325528944661,0.28036587376941746,0.30837302908341524,0.3162198968754302,0.29350712673910095,0.29215196504614926,0.29215196504614926,0.29196950861237525,0.27782499639489,0.26492577114993754,0.2771160209203911,0.2842686838643278,0.2663998577918596,0.28726758679264197,0.2921446873339235,0.29215196504614926,0.2921507404234971,0.2885691936408774,0.26195279005809446,0.23756054545320637,0.21032181956282425,0.18224805542226807,0.16076401990960676,0.18878688641167773,0.23578758776415132,0.27788827538517147,0.31434360194602373,0.34046560652351854,0.37346575441936025,0.39206905758650734,0.42589177182948035,0.4289801429023763,0.4289733960318056,0.4239808681279227,0.4026542401247335,0.40139355258220366,0.3864478639567537,0.37518816891215057,0.3953920424519266,0.3853368917878246,0.4039642962209715,0.4679662095975816,0.5301989510367724,0.5906593742175348,0.6544098869875992,0.7262844764858993,0.78743992691175,0.8467147492080223,0.8663005345823667,0.8500461726311856,0.7934916543071777,0.7318803096867903,0.651501597027984,0.5673954476867689,0.4924067616319858,0.4261796268197582,0.3428023648469143,0.2786857436098824,0.20232804064165766,0.16818903881535352,0.22038291028789647,0.28499248987076964,0.32927388540513114,0.36706238994679996,0.3742320803409731,0.37424953933748295,0.37424953933748295,0.37424856304785337,0.3714855447484302,0.34576587901463984,0.3177386321535227,0.28137702937286146,0.23165974632068842,0.2053424867627962,0.19389555123911872,0.2212075446961732,0.26146345663073145,0.30267843537181527,0.31929906969406474,0.3191688611216996,0.30163662038966255,0.28949879881146856,0.26677021657132105,0.2544204034691253,0.23754807828695235,0.23742024885192858,0.23742024885192858,0.23746108228508866,0.24793744381803862,0.2644849569430825,0.2629737979168789,0.2412892357327321,0.23521703697086238,0.21271815748870626,0.19135217249250847,0.16321216567408037,0.12242167021505512,0.0640764522306494,0.046245813695333204,0.06639973928123588,0.10097069524879654,0.13649068311889057,0.18636620901691536,0.2342366539041114,0.2763235017027199,0.3133469925563386,0.3195051638950561,0.3195216309162836,0.325723086269468,0.3461666480300627,0.34639326681513705,0.3264735782292494,0.3372903252730053,0.334245645962147,0.31961655923219023,0.32303678720886797,0.34956654400610176,0.3983414453084668,0.46237198471991814,0.5250739706850016,0.602215160058245,0.6655879244333427,0.742280645602432,0.7992403688394241,0.8625739937375121,0.9263831208852666,0.9439117576993326,0.9034603726800015,0.8386781966391768,0.7680911736555602,0.6907028413704817,0.6265172017208585,0.5452662724878881,0.4831996494191406,0.4022346538550332,0.32750677982224286,0.26110171213362143,0.18825194744586415,0.166692771322694,0.2275432076042092,0.29002229511460254,0.3191318361027573,0.3195178231432614,0.3195178231432614,0.3195178231432614,0.3192064591576509,0.3024399150595558,0.292160796684958,0.28253181003434413,0.24291326709922512,0.1983474284698774,0.1568807642550052,0.16388171457686163,0.20312910776137372,0.2379582933891191,0.26255967068243624,0.2647853838617067,0.2647861069490389,0.2647861069490389,0.2647602885863183,0.25398283708753944,0.21323647045597216,0.22557743914823636,0.23735416729133707,0.23742024885192858,0.23767356601841794,0.25546437869754435,0.26475657585830525,0.26478571984167854,0.2632734488492723,0.24167965110408485,0.21977594222351815,0.1843131331722434,0.1562515795149162,0.11955523683184133,0.07327638659836744,0.03513036332225994,0.0,0.04294951106796585,0.08146763585034744,0.12768842397346525,0.16480007244010686,0.19643519015189614,0.24646513771393508,0.2773401115128946,0.3131195476797455,0.33397536405825257,0.3689413782713915,0.3742409526029915,0.37424953933748295,0.37424953933748295,0.37368749798875545,0.3534194485500626,0.34691538714078085,0.3564447536047517,0.3847702916656637,0.4364494407606889,0.5068363953138721,0.5754772912773118,0.6462911956234105,0.7153220591561595,0.7778087358042312,0.8509024784682264,0.9132246846999896,0.966634074943828,1.0,0.9774199948860129,0.9100309691372948,0.826172546258757,0.7559619568072335,0.6850165766582421,0.6028105333764442,0.5404045864853568,0.4603896884525849,0.39364038969112425,0.3195229161418549,0.2542202227470014,0.19215711334525398,MI
0.6760207866440098,0.6211360258713472,0.5599120739809931,0.49867957888239456,0.43745037607986914,0.3786266156426086,0.3312593493258431,0.27115663476316376,0.20992824353434036,0.1512488538714214,0.10389816768504456,0.06069433035219429,0.09986755100918288,0.13043606525502005,0.13334398280645798,0.13859583269418518,0.15138339005933554,0.16735845278228334,0.18394629620283132,0.17993767616950018,0.17884739793978266,0.16847235962550444,0.17618691873166048,0.16896067617103805,0.1346809834646323,0.09971205897132673,0.09089275573114142,0.11041809793805513,0.12942734160055736,0.12486515715750501,0.11601180262267263,0.11592528677777603,0.11595061359414371,0.12284664941790258,0.13457368102839462,0.14879932594889844,0.15550499230300874,0.16766223184001383,0.16140345427549052,0.1505597947942663,0.138558099885989,0.12212034057886534,0.09948536548871267,0.08436690214343256,0.07387964264050684,0.06402938722940554,0.07436732825094738,0.081249736466658,0.09192729141976441,0.09958848447299617,0.11349480872239948,0.11987814678872866,0.13943371578950403,0.17787494539603577,0.22669931693296608,0.2776552852235583,0.32554256865449727,0.3731761607969104,0.42407204629110185,0.47029603492444627,0.5188305589721294,0.5795720736881935,0.6400453040896039,0.6872902435668662,0.7249306304698795,0.7625712777508284,0.8130627660290988,0.8591920093282157,0.905388071140178,0.9544625821371024,0.9918940475454079,1.0,0.9560697906241336,0.9022442427970381,0.8509790598145801,0.7898923488546399,0.7291039092415748,0.6801095190967303,0.6235899219711842,0.562369565423078,0.5011370703244786,0.4401138698853573,0.38940407217451734,0.33482284190306544,0.2736143209781803,0.21238182587958176,0.15114965215632203,0.09229295145426608,0.08893954675459126,0.11379806744260046,0.11617840218425446,0.1278724668214104,0.13803748386491632,0.15029565930317146,0.15074123401757777,0.15388603743057372,0.16737814548257868,0.16777193802052226,0.15312971589260327,0.11930128517267446,0.08681574795892777,0.09734369668470766,0.11565068533163458,0.12871284097491387,0.12620349663742036,0.12899557721501065,0.12560059994925332,0.11606946810813934,0.12192523908479025,0.13305056016298789,0.13564788639987668,0.14950990588784174,0.15707673380599507,0.16192343082717287,0.15092917403543504,0.14452417334679657,0.12489902589545654,0.1136311421857421,0.09547466366821356,0.07905894780900358,0.05145159377250508,0.02937402885911844,0.02404638045366081,0.0,0.0015655236557958752,0.01135981536820907,0.011482699058218415,0.013092642647914321,0.03084828242466342,0.06359505091993967,0.11851067169965601,0.16466772548600916,0.21016949632266302,0.2556191964554353,0.3006126944796632,0.34363373199271807,0.39849556329022207,0.4468179164702355,0.5034254159481377,0.551288690305082,0.5990093774766878,0.6499455169572337,0.6991300229597108,0.7460601362024217,0.7956701002943474,0.8256837566763657,0.8050058070770683,0.7506506189601105,0.7007266134833268,0.6452906616689948,0.5841706314728028,0.5321035506568843,0.47897366016979737,0.41778715224712215,0.35655465714852363,0.29537717199399793,0.241199666731565,0.19010930007766635,0.12903192727951884,0.06830934230705843,0.03861909041578793,0.08310364706277218,0.09750974052853367,0.08805915686727239,0.10896024377840385,0.11986374525113197,0.13504149916127028,0.14938867279842816,0.1431134563470562,0.14699381832446612,0.15048320623259048,0.13908750396777858,0.11577895055543408,0.08568927989988762,0.07680158705419426,0.0920564556573984,0.11388011030428435,0.11592384488401164,0.11559524044961922,0.10408828014060933,0.09853594301145074,0.09851805572967942,0.09851805572967942,0.09851969182231057,0.10191362028106354,0.1152665665283581,0.11693143056238942,0.1307271741016467,0.13326575017791864,0.12579275119496236,0.11560751526983948,0.10226201494975218,0.08197659499339371,0.06408720987599148,0.049027434616858656,0.045186999364486,0.025667166625061633,0.011716209084437157,0.011505198341582812,0.018034360091176094,0.02866642002573938,0.029596808921114715,0.04735004510075891,0.07101645583903515,0.10954877786927009,0.15563460878314617,0.20521197791612744,0.2516304899462276,0.297944087549046,0.34374932173759065,0.39108825179074236,0.44826540127288217,0.49577970531276216,0.5440229626595232,0.5951448022333352,0.6436210379673906,0.6906432852389148,0.7411367625204197,0.791278102564394,0.8382231772514332,0.8777326992168315,0.8590932202158399,0.8066705363669069,0.7591466715727417,0.7006021540616687,0.6394478110480231,0.5864762626121696,0.5342275496686968,0.47769365022964605,0.4425138884992261,0.3857068926389857,0.3356049652354969,0.2803521680374961,0.21913992734531318,0.15823077014883413,0.10858017744508874,0.07680138570637585,0.1003670443799014,0.12304429143181528,0.1332187480076148,0.13670239469591783,0.15527616745821327,0.1677933610645317,0.1735330352346729,0.18520403936389274,0.18553628256661758,0.17825951442966437,0.14139226127515236,0.1064837031324366,0.10497918668288309,0.13006903256628366,0.148935308304468,0.1636420570420749,0.15508367270439694,0.1507488439784903,MI
0.0316265541758578,0.0316265541758578,0.0316265541758578,0.03155112623299772,0.023785588173173,0.02440926277224209,0.031525878915624084,0.0257573164303162,0.016575585483106448,0.02866216030088875,0.031744339487183026,0.042056753724638796,0.07144235691090284,0.10961078633141152,0.15184649125178673,0.20176297959064193,0.24483697828707385,0.29922025642420724,0.34813884523356897,0.3954100015688131,0.4511692411328463,0.49766425354777466,0.5474421020293176,0.6033989354679501,0.6560435289344855,0.7000345566281787,0.755480101341738,0.8114855409566046,0.8674911236244647,0.9230423741873186,0.9662761658070416,0.9975613749151369,0.9966364877759593,0.9614538645999966,0.9099551213859054,0.8654936561520645,0.813415291969116,0.7574201063352044,0.7034864710706552,0.6602280853514175,0.6053397046945102,0.54933440958495,0.49333575974807475,0.44118860574181085,0.39682146724675826,0.34125116773081565,0.2852529502462722,0.23332283882985871,0.18880409359843586,0.13348353115786038,0.08822256786785321,0.05186938669517449,0.04782910785628802,0.058971411566898,0.06376558784775277,0.07814258295889243,0.09477595935368877,0.09538273879810166,0.09526217749337373,0.08448723021916793,0.05806532780128526,0.04867246901612576,0.06121670120090972,0.06351898919440702,0.06885466017504793,0.07916897796760924,0.0794437603567113,0.0789998130903804,0.06808855432892846,0.07578364951019978,0.07608486969465078,0.06524099453353793,0.07741131680448188,0.07740398119333847,0.06465429834387137,0.06751631674271685,0.0789875843040746,0.07944375164282347,0.07955010816641561,0.08817121882142942,0.09532035679427864,0.09538290944507288,0.09538290944507288,0.09538290944507288,0.09538290944507288,0.09529691716000555,0.08683899461107103,0.07973950704225219,0.0907245531704266,0.08900652504194984,0.07973950704225219,0.08894571860084799,0.0916770240461715,0.09321514786176932,0.09539464691929433,0.1003763271054745,0.11100928216863082,0.11312408094825033,0.13365733639196442,0.1549602232855083,0.18146259200002213,0.1963227033024757,0.2047759374451621,0.18405753593605034,0.15601683055579718,0.12315942849627026,0.0959398620927221,0.08040558974886558,0.06403673163473167,0.047793850053863274,0.04756564299316146,0.04732748669191844,0.03731422952334773,0.03164599344421504,0.0316265541758578,0.03135986403990154,0.021112448608227474,0.015705480203660027,0.015927273848387102,0.029583545338547346,0.06044749524318638,0.09979371018365146,0.14165621705096765,0.18809655960679494,0.23510298555886866,0.28799965935458216,0.33170058821004966,0.38706767929138053,0.4415614187867827,0.4846401271302758,0.5391462490789376,0.594990411190436,0.6413978867407955,0.6912669579548241,0.7471785706772933,0.7956143798714272,0.8433830600256504,0.8982739931523507,0.9415162769810554,0.986220289009609,1.0,0.9764087139462871,0.9334653687811487,0.8776796392214083,0.8216741429662688,0.7661491677819945,0.721742927117313,0.6695890656965533,0.6135908146994145,0.5575852320315549,0.5018361488443972,0.4559943536571027,0.4054890492775831,0.3495019901774197,0.2935358506617751,0.24348433398277525,0.1972519321615529,0.14142629880045865,0.08958936321297672,0.04570732489115725,0.023658177623417043,0.03294486062045765,0.046822036263919564,0.060990405080602716,0.06439268412163734,0.08209364460653834,0.10666801016965133,0.11625124730476077,0.1265562953923367,0.11488925474405276,0.08891286819345146,0.07946987802664607,0.07944382062776922,0.07944382062776922,0.07944382062776922,0.079509496944834,0.08736437880670511,0.09530616095943722,0.09538290944507288,0.09538283029392458,0.09491240620402142,0.08336629663302197,0.07945138145051045,0.0783270624771748,0.06567673060257473,0.06350621317140437,0.06476703965154851,0.08391687723540864,0.1041431855187831,0.12475059390055954,0.14657920419059023,0.15868331724777462,0.15247486143938938,0.12101036391278219,0.09045000276011583,0.0627185666496004,0.041658221944309126,0.03178384185323457,0.0316265541758578,0.0316265541758578,0.0316265541758578,0.0316265541758578,0.031518838261875626,0.022576018867494607,0.01570038397936413,0.010936670172804863,0.0,0.0031516691414883446,0.017021636896988657,0.041693129663595396,0.07879270905062663,0.11875703798397907,0.1607858035783396,0.21461643167002142,0.27061883953112975,0.32550722018803935,0.368765605907277,0.42269924117182534,0.47813534938002444,0.522199274402336,0.5747805135883,0.6307788575642346,0.6843344378664997,0.7272667245947373,0.7642614614933052,0.8069325741819449,0.8520819920256204,0.9028385779334434,0.9473015655869474,0.9800117075542354,0.9777427339419349,0.940118721880101,0.8971181293615009,0.8426397357829667,0.7987978257058455,0.7459770720177499,0.6899777055135345,0.6364972898839052,0.593061449912271,0.5378957693748854,0.4818901867070262,0.4258846040391666,0.3698790213713057,0.3138734387034461,0.2578680804181994,0.20269910476712427,0.15914176526057444,0.1058096132150288,0.05541686187271555,0.038452885900614575,0.051005796370063194,0.06307360744471024,0.07163158563058936,0.07945329503766896,0.08722347002435793,MI
0.012371914348918489,0.0017724640781140444,0.033699640475927994,0.09457857650730794,0.1578355191514862,0.21603956907188038,0.2696520939222373,0.3314800981827113,0.3826166880183268,0.42336638955148187,0.44523592670406265,0.4959145617345819,0.5575172348430928,0.6083480567651329,0.6583581551795001,0.7005404883037869,0.7271616359768776,0.7504040415220694,0.7690675418800486,0.7945512774250649,0.8217328229208434,0.8533546604996829,0.8893666646958893,0.9318038358978114,0.9767177963357989,1.0,0.9831936860873811,0.9527399233160256,0.9173448158546922,0.8795508570319885,0.8356891050283513,0.7961622193316797,0.7649746709218177,0.7397279256882245,0.7158517960163073,0.7065533631815639,0.7057573191650071,0.6887187447146723,0.6584721417846153,0.6429911420772303,0.6351608076289605,0.6677528358342952,0.6967263685414378,0.7280601914859548,0.742057232988421,0.723607738313961,0.7213188048156947,0.7120757952910299,0.6931355925003841,0.6768413536888698,0.6408256121113203,0.590270336617476,0.528593182500817,0.4710398608549644,0.4168353696103755,0.35538475535474845,0.305111527591476,0.26615085115340653,0.23620625970244413,0.20282794727775855,0.1467211548504488,0.09931661551242077,0.07507906728229785,0.09012705328037507,0.1409214927946778,0.19233645712425695,0.2542562459345561,0.3111924265793835,0.3659571883697619,0.4284400212616699,0.48067465394795184,0.5378460928948403,0.5894946904715939,0.6450002286543675,0.6984738993791271,0.7463950717326204,0.7663792695953671,0.77425700452764,0.7964674869648829,0.8232802059265927,0.8592279684894377,0.8872133436591749,0.9151147829665729,0.9468328074711967,0.9796510305158801,0.9666693689797383,0.9241437270111401,0.8857314458467358,0.8469799083343901,0.8069427918794569,0.7676533478999166,0.7281479134975588,0.6899730169710585,0.6582058953600121,0.6363830672490578,0.6309589053914544,0.6211789959658125,0.5999329311346471,0.5884575477523919,0.6059142598864171,0.6405296979245967,0.6724493674843997,0.6955409170020324,0.685804702167923,0.6764551106077961,0.6722240034097822,0.6518162024739307,0.6300678950791512,0.613123470601447,0.5774290328298579,0.5195116564289242,0.46071020910775706,0.40769081955300157,0.3475085342695108,0.29574029693006265,0.24102944731485465,0.20597209067228572,0.16580957209985625,0.11293138607791042,0.05878411363017033,0.015956957065725863,0.0,0.0290106365069851,0.08009204580375617,0.138324855430078,0.1914033470433727,0.25425571458358975,0.3111924265793835,0.36595732120750446,0.4291074092446969,0.4900163717951891,0.5415857540773357,0.597497119008668,0.6478066427937583,0.6765175194676449,0.6951565002021405,0.712941466273115,0.740936334091209,0.7708867422761352,0.8050713749027838,0.8367264587736396,0.8666089836717346,0.898572187994418,0.9343959720219286,0.9394773535368564,0.9105664924627832,0.878925261709381,0.8467026212462208,0.8068941707827237,0.7691175671924682,0.7412031119273661,0.7253016375027448,0.7226245011202663,0.7288322525242794,0.7183253163730643,0.7072824930069466,0.7185289003568749,0.7433506973190984,0.7577710645094728,0.731310700123986,0.7046326635910853,0.6917943417498273,0.6855589837980092,0.6613966823913464,0.6404561755201956,0.6250562838294527,0.5766492363567934,0.513498611047345,0.4502618592089562,0.3934051461760064,0.33854381414226786,0.2799019056889436,0.23280125734198576,0.20609713969022736,0.16709911731892668,0.1141253331827341,0.06808956994337767,0.04500492273688672,0.06712326127033652,0.12769882831633717,0.18590128418383012,0.23951434038515496,0.3024658122996402,0.35868885637029235,0.41411969358316325,0.472214990620313,0.525553925002566,0.5788121962332649,0.6354991698590444,0.6862338328354651,0.7357425962880653,0.7653155714531508,0.7667256728270297,0.7753823792860426,0.7972587005442722,0.8250984988762067,0.8578240827018493,0.8942005320282487,0.931529505567906,0.9567369346484411,0.9405232828434591,0.9085756629470474,0.8706362102045544,0.8268904715000542,0.7800737541948508,0.7448375214708456,0.7131668202289712,0.6839069543948364,0.6762995272203058,0.6762453494428193,0.6762453494428193,0.6765268153053916,0.6895254783683566,0.7145942940449501,0.7426394640582417,0.74759780020924,0.7370208408389884,0.7357806542852945,0.7174577253334147,0.6925978725830886,0.6737032031935777,0.6353404579842432,0.5744896883702082,0.5227701377582807,0.46357534703690995,0.41205730390388906,0.3526693555221021,0.3020857349831241,0.2610876683449046,0.23285082074649655,0.1801605983300576,0.12921037300139537,0.0879672763467747,0.07979587808700939,0.12338277854302926,0.1762917162776585,0.23347771293758202,0.28762466953822674,0.34916419035081203,0.40059178417360064,0.46204279694245276,0.5162472881870417,0.5737364694902527,0.6299310862103424,0.6834087610512074,0.7339760484511721,0.7813942342619056,0.8094657145636868,0.8156958646146975,0.8285984170222864,0.8501622577132846,0.878180828662722,0.919093866070436,0.9546507877993289,0.9901194651616083,MI
0.3671844211613222,0.3864391297218437,0.4168604080228637,0.4583358491420797,0.4908515461184888,0.5320994557335772,0.5511752855501899,0.5475268409968055,0.5053564651204341,0.44403106838011075,0.4005662911954917,0.3751704235899287,0.3742019725719534,0.3742019725719534,0.3742019725719534,0.3749941116436939,0.3939068087389779,0.4176168239644906,0.45253385534359625,0.4955091645481011,0.5461741618801779,0.5893718677199611,0.632484036515589,0.6707320449162704,0.6653409681456384,0.6234163861978881,0.5844399886499647,0.5413319344509326,0.49632688434964534,0.44285002257256467,0.3992885954618015,0.3561651146407798,0.31306913831729544,0.2751842422960391,0.2464285843159888,0.22187107945282802,0.20018228736740307,0.1856053829323394,0.18460840419169777,0.2179375537040742,0.20882984581930275,0.18706333784357598,0.21608853587104138,0.2826483256887182,0.36134686359847334,0.4299540806148108,0.5156433456914828,0.6018891941596256,0.6879269987262702,0.7589035052221065,0.8118533578366809,0.8102920771582762,0.7628369471400283,0.6856384233874988,0.6200900791659598,0.5359627051966078,0.45867018810368654,0.3936528560525532,0.32950853087848175,0.2698979407654707,0.25209023414062104,0.2715673072542528,0.2729556360106815,0.2852664344956932,0.30045641534605894,0.3267345390953982,0.3702424757428564,0.40676680230155204,0.44958130307482813,0.4746040885545493,0.4593731466120121,0.4148137008141908,0.35779558519731447,0.30893797277428936,0.29871117641638945,0.31657730377255655,0.3235346023164065,0.33320811025137465,0.3501240857766832,0.3708812764562084,0.3867961343196016,0.42243988400377175,0.45133029870712305,0.4888335195126081,0.5416867395679348,0.5910694862803516,0.6333754791149926,0.6523289873683029,0.6522581543939059,0.6291696971714758,0.5863384282137107,0.5432292072545173,0.5045857779740808,0.4665227210241327,0.4066592747638089,0.3711027907182989,0.34548839401432696,0.31172789753805974,0.2895147570107972,0.2731344999197254,0.278024161620793,0.29735552049191094,0.29835272375656485,0.3184107126223359,0.3775512964918195,0.4554269373207913,0.5224214284658841,0.6076944279155572,0.6802869937209857,0.7548098172250808,0.8206988262281238,0.8696430006276663,0.9032988522574414,0.8794789896510147,0.817241581195256,0.735355126091664,0.6697612992872561,0.5921663830148103,0.5247462859379302,0.4578302307600741,0.38554035681117815,0.33487992089942553,0.3465573876729455,0.3488884117625122,0.3584211144386127,0.3754232219139859,0.39875929148773404,0.43401939465653383,0.46641433918901454,0.5078243796671749,0.5404214252550692,0.5816203967417928,0.6012901926454419,0.5811857041036625,0.5341603734916966,0.4768167318032108,0.4317657500405958,0.42617206473035596,0.4461431261717741,0.45021871955558757,0.45619738745230043,0.4754392051891192,0.4956746734933719,0.5293770602563446,0.562158590518425,0.603129939188277,0.6462581293870691,0.6893614161584067,0.7249827953985011,0.7285273616121271,0.7094133948188035,0.6748173864523843,0.6364543893660728,0.5933501490396345,0.5502199914279013,0.5070944121869423,0.46400841180023766,0.428536485196926,0.40285885744209127,0.3735103115842837,0.3518417883294087,0.34960975682192386,0.3696158002763057,0.39580609110734466,0.38376951990702723,0.36015797261974436,0.4094878297640627,0.48716851139191286,0.5709644405658083,0.6366492559985253,0.7205283227296468,0.805960073843361,0.8734690489625048,0.951369523993812,1.0000000000000004,0.9939575162804943,0.9247161311260368,0.8573799187101874,0.7763447158281394,0.7098856495906616,0.6282808978840797,0.5624282783142385,0.4860013116877675,0.4179360365615765,0.3869811873437441,0.40134318957305615,0.42212490680001524,0.42489492189422906,0.43323038443464457,0.44257266498935843,0.42532930142014846,0.43589067546098414,0.4759859995602693,0.4988564300280385,0.4720004470743553,0.4219658590236439,0.36477074298850587,0.3151436603104121,0.27467245016956143,0.2555887225179707,0.22071017989871367,0.19824896297955918,0.19856590829445553,0.21406390311436896,0.1978890114140497,0.20404841775636173,0.20826628967676575,0.2035113485756841,0.2389105383505581,0.28030484788838583,0.32763766338848965,0.3707870237018063,0.41848818599998827,0.4494377423799816,0.4423060507321126,0.41372159517128937,0.3722629918603846,0.3226342304123544,0.2734168233252947,0.23027466681382025,0.18715895968484242,0.14403032819669948,0.10099272269524029,0.0659889981522701,0.030175737964523996,0.015262676734322245,0.0,0.018668192796965855,0.050445741497015195,0.10777232594712949,0.1202947990823473,0.11941158040090727,0.10244174511085014,0.050095258560945766,0.008792755471507263,0.01951125207391291,0.07769604060347746,0.1435070232492972,0.22561210094767103,0.31159894174000113,0.38198491762847686,0.45906104212917187,0.5449348181948239,0.6140106778335466,0.6861335632761159,0.7240372890685243,0.6828923657853267,0.6015343613896245,0.5355720704924214,0.4508466848203345,0.37610543532351537,0.3059660152656476,0.24066122860832762,0.1697678215031857,0.10849532370899206,MI
0.7763447587107435,0.7417458617792452,0.6938316340602482,0.6448799294725798,0.5999824534409708,0.6002946028969962,0.5948054052708529,0.5932118903557528,0.6042798203918478,0.6046941688105134,0.6046942133520754,0.6046942133520754,0.6048200122015972,0.6138541558385229,0.6097136747214891,0.6048943778050333,0.6172478372094345,0.6432066085690713,0.6796578325901477,0.7153961513982598,0.7670338744296812,0.8096326299564418,0.8438833096227043,0.8833131151706417,0.8990126281340025,0.9053300638992705,0.877494857217394,0.8431423247772867,0.8061971619789059,0.7776912737421773,0.7506799401657069,0.7343189044379343,0.7160281035548897,0.6964084889284821,0.6784312000077612,0.6548072033568242,0.6286725220032543,0.5835237954838348,0.5371442736965748,0.48543725005939375,0.4258700970911602,0.38247724810225403,0.3405678635375793,0.2892007068462852,0.22741761972823493,0.17492494626297717,0.11421820392108639,0.10705359263394199,0.1527817519273338,0.2013980911925084,0.24330976607239707,0.3028075294562522,0.364158505659276,0.41780139000373717,0.48238213736578617,0.5397143679459191,0.5969777652097155,0.6603407733831843,0.712813255356719,0.7746185301165878,0.8270467923564531,0.8903515547640759,0.9433395194748737,0.9930396593775308,1.0,0.9587580808321134,0.9062153734949181,0.8452601217743534,0.7918606550151055,0.7311431534276855,0.6779861622615297,0.6246728759741424,0.5787928307734753,0.5723830568498753,0.5724350738220094,0.5812470477719387,0.6176930465435628,0.656972340959741,0.700342645127169,0.7396921409820134,0.7659382834935577,0.7782390349304604,0.7373852508599739,0.6858908126241308,0.6414088118263779,0.6207624888944383,0.6072131327044645,0.6048156765061905,0.6128542768458485,0.6121335946846966,0.6205960040415408,0.6232458149370612,0.6272219409278974,0.5988155127249946,0.573152953944037,0.556739973115687,0.5592742775865625,0.5726667935017997,0.587583597063627,0.6147600094709116,0.6543798252463877,0.6982205122500038,0.7336501820535717,0.776641620410206,0.8202341820379235,0.8470660371000815,0.8736130207530795,0.860495854738017,0.8385164622466412,0.8049503774559574,0.7761171469522141,0.7479332192879506,0.7176936676052432,0.6920824757449942,0.6690173328124689,0.6540897271723649,0.6343363634453558,0.624812055939989,0.585181005545246,0.552721953101142,0.5123306327645039,0.45589338024128967,0.4038866158997032,0.3518596581215059,0.2928087508222861,0.23869713349755362,0.17869256709236003,0.12431621701555962,0.06014591754440657,0.008296685936638237,0.0,0.04817838375713901,0.10349956047216136,0.15215480531674253,0.19791233923253593,0.2585314949706601,0.31193096172990886,0.3733531648611539,0.42966411654810877,0.4878936211561564,0.5478200114385601,0.6025173304759845,0.6673620019514837,0.723003465705661,0.7819369398388676,0.841091607435017,0.8933026968273139,0.9232047806250634,0.9002432763037271,0.852548212875957,0.7889051026257108,0.7256698581715639,0.6730894707238679,0.61431519436371,0.5622564316271865,0.5277156723469605,0.5238625748979739,0.5199232566875214,0.5246818883240709,0.5523922243827917,0.586373487161103,0.6380239117327506,0.6770829777372556,0.7090955825194807,0.7313595948752285,0.7046048965844811,0.6565747422903678,0.6125999011922132,0.570764464783887,0.5563680506319235,0.5618143504201338,0.5605705696179011,0.5592260644954403,0.5715179986848229,0.5756169293718472,0.5877393033676963,0.5885325215035935,0.5885079856221731,0.5835166035596937,0.574205115737429,0.586539182693051,0.5943138563586228,0.6307137853950389,0.6628549386506819,0.7019554400022852,0.7388668565230976,0.7833409930557709,0.8223842537327526,0.8523407279097124,0.8601207829117619,0.8443214297648178,0.8126815117534552,0.7800975676899444,0.7514122219396864,0.7249645811961543,0.7008570046207843,0.6858175353924687,0.6695149210621598,0.6543924344406329,0.6350926462436504,0.6016538372837243,0.569435667050465,0.5154913624895201,0.46312086274481734,0.408052412278606,0.34994274183845553,0.28491143792944573,0.2288550772281761,0.17031167339549436,0.1108932443533246,0.07192619544282763,0.10114137110226773,0.15308608175286897,0.19027452873026585,0.23955637071479519,0.29379541235024087,0.3495674814421257,0.40802525244651777,0.46772337290630084,0.5226470481316463,0.5868124162499537,0.6396279144359283,0.7020377909006728,0.7609995540070797,0.816628093615634,0.8750772488293692,0.9297604133710355,0.9679651852196356,0.945860606402066,0.896712580540306,0.8374173991650009,0.7875228189291192,0.7496883542638133,0.7029842107168798,0.6483467734877397,0.5931333701543617,0.56453023353885,0.5709006069570468,0.5723859169208363,0.5794473640324656,0.6129147718457006,0.65033172357938,0.7010106712936874,0.7405685236905457,0.7746743520731907,0.778277597879359,0.7436381464973079,0.6948791319376992,0.6525704290810812,0.6188611436470643,0.6051671036053476,0.6050061267267699,0.6154852663813672,0.618846037288328,0.612701387663662,MI
0.21493558184626593,0.2364965621488926,0.23770297220770242,0.2356722270923326,0.21369988985369304,0.21129207481543233,0.21129203071023106,0.21129203071023106,0.21129203071023106,0.21129203071023106,0.21262733803353218,0.2339315485440734,0.23770335812820775,0.24064733881354705,0.26097700916496613,0.24028986564536048,0.2377036668646113,0.23770353454900928,0.23770353454900928,0.23770353454900928,0.23770353454900928,0.23770353454900928,0.23770353454900928,0.23841313151238275,0.25850010034132165,0.2410729916725991,0.2140586420726951,0.21129225123623385,0.21129203071023106,0.21129203071023106,0.21129203071023106,0.21129203071023106,0.21100724738893906,0.1946982699616182,0.18488264392107912,0.18484568770320653,0.17632167485880146,0.1585960322794957,0.14937423493194402,0.10919641931444612,0.09853782803604894,0.07639437614460842,0.05455982570836504,0.042475049868127,0.026526128400754523,0.026763627633966003,0.04673664501754615,0.032226097348571514,0.026413753204008295,0.030428190712480152,0.05130412874794743,0.0347300998553397,0.02748052562546288,0.04861585203555663,0.052822489441451737,0.05282300767755732,0.05282521293758613,0.0631404150028585,0.07900595934547106,0.08830275825380163,0.10548643031398885,0.12628506922383398,0.15806795658176132,0.19111547303713916,0.24798565998070643,0.3126790252539662,0.36635866490439106,0.41589519301049993,0.4706644777258928,0.5190895783347971,0.581935427771386,0.6251982636150428,0.6865426483615851,0.7382640427010747,0.789685594292588,0.8425686205769622,0.8876905217992217,0.8979222081801792,0.8885514757001678,0.8439086025845715,0.7921886637166997,0.7308619797249332,0.6944406960960174,0.669363501722823,0.6134214279886034,0.5696642030287284,0.5094822718300769,0.4461458445975879,0.4034823004890793,0.3416920487699935,0.27698011166424674,0.2205104983726578,0.21129379491825429,0.21129203071023106,0.2120910621234522,0.23306248832075926,0.24277203540958592,0.2583824757402384,0.2382612389226395,0.22410754971150126,0.21013281624213231,0.1849684442398596,0.1599853383578953,0.16553861282960103,0.18429879962636964,0.19070095608054327,0.21057327605772613,0.2112920196839312,0.21129203071023106,0.21129203071023106,0.21129203071023106,0.21129203071023106,0.21129203071023106,0.21129203071023106,0.21129203071023106,0.21129203071023106,0.21129203071023106,0.21129203071023106,0.21129203071023106,0.21129203071023106,0.21129203071023106,0.21129203071023106,0.21129203071023106,0.21129203071023106,0.21129203071023106,0.21129203071023106,0.21129203071023106,0.21129203071023106,0.21129203071023106,0.21129203071023195,0.21129203071023106,0.21129203071023106,0.21129203071023106,0.21129203071023106,0.21129203071023106,0.21129203071023106,0.21129203071023106,0.21129203071023106,0.21129203071023106,0.21129203071023106,0.21129203071023106,0.21129203071023106,0.21129203071023106,0.21129203071023106,0.21129203071023106,0.21129203071023106,0.21129203071023106,0.21129203071023106,0.21129203071023106,0.2112915124741237,0.2070592642764666,0.17840424004687971,0.15821259010827582,0.13930491321954364,0.10935254888104673,0.0878675201696355,0.05711237359892962,0.037193476416284454,0.017714952609155787,0.00015038030639491495,0.0,0.0,1.7642080232249668e-06,0.007819086149629229,0.025909734851881083,0.026449508948426903,0.03872756810461819,0.05275784670086647,0.05282300767755732,0.05307043929023347,0.07328667732607563,0.07922340245904813,0.07931338033389235,0.09354923272271343,0.10564473009451802,0.1188823881340042,0.1509940073197651,0.18297290965669788,0.22766793069812064,0.27145132293854246,0.31916456299950724,0.3737503350490732,0.4234703206895096,0.4769077716882508,0.5414050544314408,0.5876022774182195,0.6446734045859639,0.7038113236606209,0.7484503728102929,0.8121860554622469,0.8565639248278272,0.9152780161785454,0.9602611773256822,1.0,0.9916733121891266,0.9589357221650925,0.9157809901215552,0.8512790198075413,0.7865468224521246,0.7267433021055405,0.6828680167611267,0.6187798222931917,0.5615635896580402,0.5155063152534627,0.4509634812315415,0.38654130972481227,0.3383389180252756,0.283176557821724,0.22464286042789183,0.21129943214414837,0.213521131217,0.23538211400095665,0.23779224439933788,0.252517919990523,0.2640630608060741,0.2641150383877884,0.2638573010905967,0.2468892850660298,0.21419542781228618,0.1899655298486289,0.20940591211484438,0.211291688894927,0.21129203071023106,0.21129203071023106,0.21129203071023106,0.21129203071023106,0.21129203071023106,0.21129203071023106,0.21129203071023106,0.21129203071023106,0.21129203071023106,0.21129203071023106,0.21129203071023106,0.21129203071023106,0.21136068360080973,0.22510708768147403,0.23736150028801095,0.22110977380039643,0.21129414775985822,0.21129203071023106,0.21129203071023106,0.21129203071023106,0.2112939713390558,0.22011044533012925,0.23731025839491515,0.23770353454900928,0.23770353454900928,0.23773643169516934,0.24973097251054366,0.2549497618500025,0.23784369892842694,0.23770353454900928,0.23770353454900928,0.23770353454900928,0.23770353454900928,MI
0.0,0.0272593556261278,0.06706094339767965,0.10487251913499929,0.13805824469699757,0.12092796543982653,0.10875852686622944,0.11350132270898938,0.11750400646937686,0.09354112309272189,0.057836200501292456,0.01764468057511781,0.005505197293487862,0.04320047966536511,0.0822030334517263,0.12971134068813406,0.17653617608030325,0.21069664204733862,0.24073827184415975,0.2681192102091787,0.2840872331595594,0.296688108385013,0.2973112773051785,0.29052680124128694,0.2784941516649184,0.26100603439204995,0.24888683787077004,0.23675561141690582,0.23823614070245025,0.2508516322230836,0.24935139699300146,0.2340396856652356,0.22453892862213531,0.2507058848063033,0.28664175391493485,0.32378003665002186,0.330574147540855,0.3079848374488692,0.28896193213530097,0.27121544086814153,0.22987658064562222,0.1805740108180014,0.13337701719567052,0.08476710379049224,0.04316955633190145,0.015631961904299496,0.03826219850654988,0.08263311745298219,0.13645309232562441,0.18206933167434847,0.23602210154763736,0.2908317936596445,0.3370077189379277,0.3898672881436922,0.4453019167625074,0.5002950853173358,0.5468002044230627,0.5991501627550329,0.6545830552854457,0.7099382000000278,0.7564319423084669,0.7918523063111906,0.8390824401960497,0.8943485695896132,0.9497835984152196,1.0,0.985832955539315,0.9366033260683193,0.8880533108362756,0.8328339073424926,0.7836849467004128,0.7342663355005965,0.6789304223914701,0.6279647698269821,0.5802742407726007,0.5250607394123219,0.4696413252333489,0.41813374172666107,0.3720559104858481,0.32850298698844727,0.2953063405953902,0.27595060542061045,0.26277378546382235,0.26399276105306657,0.26505102963947946,0.24655661374542936,0.2310986486804787,0.21202828178227273,0.1887227617570626,0.17523966738210528,0.17352753946549337,0.18652652807422077,0.21270361779563363,0.2450221158925454,0.27048204458094127,0.2976410842066195,0.32819571214230336,0.3470505092378682,0.3579548327343498,0.358264562299758,0.34408140211644955,0.33463049689601565,0.3234689215874025,0.3095529168127271,0.2951259285117991,0.29136324709835026,0.30132040759715384,0.29510437536915646,0.2792475190570187,0.2758709259577363,0.2999210615269807,0.3355129029924533,0.36772174568075044,0.3707712647929111,0.3489531465334812,0.3303201506541571,0.31422035278975047,0.27115358630706377,0.22454561496439696,0.1695898638910509,0.12104411555689909,0.08029379493415623,0.05305042744154709,0.06977626650629709,0.11146624748529699,0.1640725419774165,0.21528181965081972,0.26269862776756514,0.31793270050734934,0.37335800941742603,0.42513885511171434,0.47210378174791146,0.5272137422785583,0.5826533030767838,0.6376401883184513,0.6841339559128867,0.7365012724630295,0.7919334630339931,0.8463022089235039,0.8916392673601168,0.9169270244156214,0.8713303234798451,0.815939982138044,0.7650285706353985,0.7172889578650894,0.6628080201720712,0.6169678656660911,0.5636692305721431,0.5109719748508605,0.46472648494869206,0.41474241792278477,0.3733382245620689,0.33922464002217145,0.31693568222457236,0.2997251614627805,0.28588177068156506,0.27702724576702686,0.2704468292508988,0.25232953038251105,0.2260487905365447,0.20304018862297157,0.17680178326804485,0.15477803068684537,0.13941887595407332,0.14805534956312716,0.16684046748757697,0.19472615563469287,0.22514866481021767,0.25330891803629485,0.2831129643690409,0.30626596420191676,0.3229576223551516,0.33403416675382225,0.3344474228848848,0.3256255458138919,0.3162150835121569,0.295584216821958,0.2828727149501933,0.2731681619207069,0.2737119923308253,0.2802605453518585,0.26599339441019776,0.2603037969894697,0.2754870311542783,0.31369358742926945,0.3482664704469789,0.36546167481875225,0.3502422908288314,0.32670587802823103,0.3057714405474794,0.27025935509533294,0.22171793297670228,0.17613180740122214,0.12723396773515772,0.085416195399177,0.04725836093570268,0.04100943785385236,0.06883537721782562,0.10694021118549624,0.1563652564128224,0.20460831343575414,0.2598996596982184,0.31533931841385465,0.3707789771294925,0.42621861777703485,0.4814099919544863,0.5289072560880923,0.5800855346933931,0.6354996776163393,0.6909385379329489,0.7453825162362069,0.7911053669153838,0.844783139638372,0.9000118025941886,0.9332843094306553,0.8984995794310322,0.8434811061108412,0.7920598957974909,0.744778541150251,0.6896229494972221,0.6367106355853442,0.5905687648409335,0.5360357449249724,0.4888138473620631,0.4375610142961244,0.39014533650455796,0.3431458663822142,0.3041164941477734,0.2730107380498288,0.25613349318222345,0.2441794575416414,0.23059019506590483,0.21382034369458847,0.1962526501151931,0.17947335286909105,0.15880424227663537,0.1326134374504655,0.11652000040085042,0.11185740413109935,0.12628013338537558,0.15037660901757754,0.18313285621528208,0.2197331750235425,0.2539883502078797,0.282112993408449,0.30623506040595805,0.31971424727963793,0.3223099372463043,0.31634100694785605,0.3075553645824871,0.28968556428307846,0.27800339929355866,0.26959765770289223,0.2605006703955788,0.2599976304163243,MI
0.3671844211613222,0.3864391297218437,0.4168604080228637,0.4583358491420797,0.4908515461184888,0.5320994557335772,0.5511752855501899,0.5475268409968055,0.5053564651204341,0.44403106838011075,0.4005662911954917,0.3751704235899287,0.3742019725719534,0.3742019725719534,0.3742019725719534,0.3749941116436939,0.3939068087389779,0.4176168239644906,0.45253385534359625,0.4955091645481011,0.5461741618801779,0.5893718677199611,0.632484036515589,0.6707320449162704,0.6653409681456384,0.6234163861978881,0.5844399886499647,0.5413319344509326,0.49632688434964534,0.44285002257256467,0.3992885954618015,0.3561651146407798,0.31306913831729544,0.2751842422960391,0.2464285843159888,0.22187107945282802,0.20018228736740307,0.1856053829323394,0.18460840419169777,0.2179375537040742,0.20882984581930275,0.18706333784357598,0.21608853587104138,0.2826483256887182,0.36134686359847334,0.4299540806148108,0.5156433456914828,0.6018891941596256,0.6879269987262702,0.7589035052221065,0.8118533578366809,0.8102920771582762,0.7628369471400283,0.6856384233874988,0.6200900791659598,0.5359627051966078,0.45867018810368654,0.3936528560525532,0.32950853087848175,0.2698979407654707,0.25209023414062104,0.2715673072542528,0.2729556360106815,0.2852664344956932,0.30045641534605894,0.3267345390953982,0.3702424757428564,0.40676680230155204,0.44958130307482813,0.4746040885545493,0.4593731466120121,0.4148137008141908,0.35779558519731447,0.30893797277428936,0.29871117641638945,0.31657730377255655,0.3235346023164065,0.33320811025137465,0.3501240857766832,0.3708812764562084,0.3867961343196016,0.42243988400377175,0.45133029870712305,0.4888335195126081,0.5416867395679348,0.5910694862803516,0.6333754791149926,0.6523289873683029,0.6522581543939059,0.6291696971714758,0.5863384282137107,0.5432292072545173,0.5045857779740808,0.4665227210241327,0.4066592747638089,0.3711027907182989,0.34548839401432696,0.31172789753805974,0.2895147570107972,0.2731344999197254,0.278024161620793,0.29735552049191094,0.29835272375656485,0.3184107126223359,0.3775512964918195,0.4554269373207913,0.5224214284658841,0.6076944279155572,0.6802869937209857,0.7548098172250808,0.8206988262281238,0.8696430006276663,0.9032988522574414,0.8794789896510147,0.817241581195256,0.735355126091664,0.6697612992872561,0.5921663830148103,0.5247462859379302,0.4578302307600741,0.38554035681117815,0.33487992089942553,0.3465573876729455,0.3488884117625122,0.3584211144386127,0.3754232219139859,0.39875929148773404,0.43401939465653383,0.46641433918901454,0.5078243796671749,0.5404214252550692,0.5816203967417928,0.6012901926454419,0.5811857041036625,0.5341603734916966,0.4768167318032108,0.4317657500405958,0.42617206473035596,0.4461431261717741,0.45021871955558757,0.45619738745230043,0.4754392051891192,0.4956746734933719,0.5293770602563446,0.562158590518425,0.603129939188277,0.6462581293870691,0.6893614161584067,0.7249827953985011,0.7285273616121271,0.7094133948188035,0.6748173864523843,0.6364543893660728,0.5933501490396345,0.5502199914279013,0.5070944121869423,0.46400841180023766,0.428536485196926,0.40285885744209127,0.3735103115842837,0.3518417883294087,0.34960975682192386,0.3696158002763057,0.39580609110734466,0.38376951990702723,0.36015797261974436,0.4094878297640627,0.48716851139191286,0.5709644405658083,0.6366492559985253,0.7205283227296468,0.805960073843361,0.8734690489625048,0.951369523993812,1.0000000000000004,0.9939575162804943,0.9247161311260368,0.8573799187101874,0.7763447158281394,0.7098856495906616,0.6282808978840797,0.5624282783142385,0.4860013116877675,0.4179360365615765,0.3869811873437441,0.40134318957305615,0.42212490680001524,0.42489492189422906,0.43323038443464457,0.44257266498935843,0.42532930142014846,0.43589067546098414,0.4759859995602693,0.4988564300280385,0.4720004470743553,0.4219658590236439,0.36477074298850587,0.3151436603104121,0.27467245016956143,0.2555887225179707,0.22071017989871367,0.19824896297955918,0.19856590829445553,0.21406390311436896,0.1978890114140497,0.20404841775636173,0.20826628967676575,0.2035113485756841,0.2389105383505581,0.28030484788838583,0.32763766338848965,0.3707870237018063,0.41848818599998827,0.4494377423799816,0.4423060507321126,0.41372159517128937,0.3722629918603846,0.3226342304123544,0.2734168233252947,0.23027466681382025,0.18715895968484242,0.14403032819669948,0.10099272269524029,0.0659889981522701,0.030175737964523996,0.015262676734322245,0.0,0.018668192796965855,0.050445741497015195,0.10777232594712949,0.1202947990823473,0.11941158040090727,0.10244174511085014,0.050095258560945766,0.008792755471507263,0.01951125207391291,0.07769604060347746,0.1435070232492972,0.22561210094767103,0.31159894174000113,0.38198491762847686,0.45906104212917187,0.5449348181948239,0.6140106778335466,0.6861335632761159,0.7240372890685243,0.6828923657853267,0.6015343613896245,0.5355720704924214,0.4508466848203345,0.37610543532351537,0.3059660152656476,0.24066122860832762,0.1697678215031857,0.10849532370899206,MI
0.012371914348918489,0.0017724640781140444,0.033699640475927994,0.09457857650730794,0.1578355191514862,0.21603956907188038,0.2696520939222373,0.3314800981827113,0.3826166880183268,0.42336638955148187,0.44523592670406265,0.4959145617345819,0.5575172348430928,0.6083480567651329,0.6583581551795001,0.7005404883037869,0.7271616359768776,0.7504040415220694,0.7690675418800486,0.7945512774250649,0.8217328229208434,0.8533546604996829,0.8893666646958893,0.9318038358978114,0.9767177963357989,1.0,0.9831936860873811,0.9527399233160256,0.9173448158546922,0.8795508570319885,0.8356891050283513,0.7961622193316797,0.7649746709218177,0.7397279256882245,0.7158517960163073,0.7065533631815639,0.7057573191650071,0.6887187447146723,0.6584721417846153,0.6429911420772303,0.6351608076289605,0.6677528358342952,0.6967263685414378,0.7280601914859548,0.742057232988421,0.723607738313961,0.7213188048156947,0.7120757952910299,0.6931355925003841,0.6768413536888698,0.6408256121113203,0.590270336617476,0.528593182500817,0.4710398608549644,0.4168353696103755,0.35538475535474845,0.305111527591476,0.26615085115340653,0.23620625970244413,0.20282794727775855,0.1467211548504488,0.09931661551242077,0.07507906728229785,0.09012705328037507,0.1409214927946778,0.19233645712425695,0.2542562459345561,0.3111924265793835,0.3659571883697619,0.4284400212616699,0.48067465394795184,0.5378460928948403,0.5894946904715939,0.6450002286543675,0.6984738993791271,0.7463950717326204,0.7663792695953671,0.77425700452764,0.7964674869648829,0.8232802059265927,0.8592279684894377,0.8872133436591749,0.9151147829665729,0.9468328074711967,0.9796510305158801,0.9666693689797383,0.9241437270111401,0.8857314458467358,0.8469799083343901,0.8069427918794569,0.7676533478999166,0.7281479134975588,0.6899730169710585,0.6582058953600121,0.6363830672490578,0.6309589053914544,0.6211789959658125,0.5999329311346471,0.5884575477523919,0.6059142598864171,0.6405296979245967,0.6724493674843997,0.6955409170020324,0.685804702167923,0.6764551106077961,0.6722240034097822,0.6518162024739307,0.6300678950791512,0.613123470601447,0.5774290328298579,0.5195116564289242,0.46071020910775706,0.40769081955300157,0.3475085342695108,0.29574029693006265,0.24102944731485465,0.20597209067228572,0.16580957209985625,0.11293138607791042,0.05878411363017033,0.015956957065725863,0.0,0.0290106365069851,0.08009204580375617,0.138324855430078,0.1914033470433727,0.25425571458358975,0.3111924265793835,0.36595732120750446,0.4291074092446969,0.4900163717951891,0.5415857540773357,0.597497119008668,0.6478066427937583,0.6765175194676449,0.6951565002021405,0.712941466273115,0.740936334091209,0.7708867422761352,0.8050713749027838,0.8367264587736396,0.8666089836717346,0.898572187994418,0.9343959720219286,0.9394773535368564,0.9105664924627832,0.878925261709381,0.8467026212462208,0.8068941707827237,0.7691175671924682,0.7412031119273661,0.7253016375027448,0.7226245011202663,0.7288322525242794,0.7183253163730643,0.7072824930069466,0.7185289003568749,0.7433506973190984,0.7577710645094728,0.731310700123986,0.7046326635910853,0.6917943417498273,0.6855589837980092,0.6613966823913464,0.6404561755201956,0.6250562838294527,0.5766492363567934,0.513498611047345,0.4502618592089562,0.3934051461760064,0.33854381414226786,0.2799019056889436,0.23280125734198576,0.20609713969022736,0.16709911731892668,0.1141253331827341,0.06808956994337767,0.04500492273688672,0.06712326127033652,0.12769882831633717,0.18590128418383012,0.23951434038515496,0.3024658122996402,0.35868885637029235,0.41411969358316325,0.472214990620313,0.525553925002566,0.5788121962332649,0.6354991698590444,0.6862338328354651,0.7357425962880653,0.7653155714531508,0.7667256728270297,0.7753823792860426,0.7972587005442722,0.8250984988762067,0.8578240827018493,0.8942005320282487,0.931529505567906,0.9567369346484411,0.9405232828434591,0.9085756629470474,0.8706362102045544,0.8268904715000542,0.7800737541948508,0.7448375214708456,0.7131668202289712,0.6839069543948364,0.6762995272203058,0.6762453494428193,0.6762453494428193,0.6765268153053916,0.6895254783683566,0.7145942940449501,0.7426394640582417,0.74759780020924,0.7370208408389884,0.7357806542852945,0.7174577253334147,0.6925978725830886,0.6737032031935777,0.6353404579842432,0.5744896883702082,0.5227701377582807,0.46357534703690995,0.41205730390388906,0.3526693555221021,0.3020857349831241,0.2610876683449046,0.23285082074649655,0.1801605983300576,0.12921037300139537,0.0879672763467747,0.07979587808700939,0.12338277854302926,0.1762917162776585,0.23347771293758202,0.28762466953822674,0.34916419035081203,0.40059178417360064,0.46204279694245276,0.5162472881870417,0.5737364694902527,0.6299310862103424,0.6834087610512074,0.7339760484511721,0.7813942342619056,0.8094657145636868,0.8156958646146975,0.8285984170222864,0.8501622577132846,0.878180828662722,0.919093866070436,0.9546507877993289,0.9901194651616083,MI
0.19574790334249004,0.18288347498963642,0.17352381700543873,0.17351216390680602,0.17351216390680602,0.17351216390680602,0.17351216390680602,0.17241180499509667,0.15469095300511748,0.1494893407597937,0.13066520407912252,0.11680982282528651,0.08860910154854551,0.06805539939388172,0.038326446146450976,0.015314845356275697,0.0,0.016234993492129757,0.0332003079636527,0.06278104140622975,0.09263257740163455,0.11403321288237578,0.15237243272957546,0.18286431877932685,0.2129480042304892,0.23871549294357797,0.2589345426847527,0.28647254218332296,0.3217725235555293,0.35153399760315773,0.3831880024780414,0.4175672861957662,0.4194486835552804,0.41939587360805897,0.41105963277089774,0.39724646770236305,0.39631945749176634,0.37918454737024687,0.374737290252372,0.3746667261073662,0.3654468227978884,0.3524948951600684,0.3622464927627238,0.39680373423502857,0.4364051431139777,0.4764674047772255,0.52488310661691,0.5693158529587938,0.6103043831299999,0.6407612190961798,0.6685798215192191,0.7087319868716593,0.7333646885724194,0.7712369391176104,0.8009164842637686,0.8397949802349931,0.8850245687888743,0.9093403531160549,0.8791659560782161,0.8370738901613786,0.777571996061738,0.7176000205636646,0.6576523399733567,0.6045782982833705,0.5597803421941387,0.500070091893023,0.4400981163949509,0.38012614089687835,0.32015505017110835,0.26175620999490734,0.22035097940087933,0.16850878978019157,0.17636843148103365,0.1951875130769265,0.19587013722845592,0.19587013722845592,0.19587013722845592,0.19587013722845592,0.19587013722845592,0.19626282918062632,0.2129378740778476,0.2192272689382775,0.237595472833652,0.2431585567596377,0.26149756126374246,0.26294347453847466,0.26571936576533206,0.2809377944984357,0.26394606411679833,0.261916569232846,0.2443258546142606,0.2389913643613819,0.2147195711437342,0.18538130464212843,0.17187065894753983,0.1531298310993474,0.15948260337465792,0.18856538300798764,0.21467413305882443,0.2182258878294414,0.21828147954558963,0.2302900116220643,0.24050403521289976,0.24025086994710643,0.22490883164380637,0.21823562032478083,0.21822811055010716,0.21822811055010716,0.22105604864633666,0.23919648108021851,0.23321839950538825,0.21845411754109678,0.21822811055010716,0.21822811055010716,0.21822811055010716,0.21822811055010716,0.21822811055010716,0.21703666294946222,0.19915445561378808,0.1965683006422143,0.21479241071829502,0.21822593098906573,0.21822778685292255,0.216890921047165,0.19874878424569786,0.19587013722845592,0.19587013722845592,0.19587013722845592,0.19584089199917054,0.18872536411575247,0.1736756314490977,0.16329235391534658,0.14364046176571188,0.11526996250368793,0.09577401912448735,0.07623940337228285,0.04667400332966665,0.020452722517271926,0.017024001444772452,0.028405703582080832,0.04764015262460575,0.06696268412891815,0.09576165790562463,0.1323832289451765,0.16601311034629873,0.1773822742535982,0.20440632477617404,0.23454889257054745,0.26425622756568234,0.2968419404549376,0.3353030539650024,0.3652232636133932,0.3746683762145402,0.3747339238016556,0.3747305357711279,0.36922114293254404,0.3527066871353397,0.34456354417674007,0.33020587058421613,0.32621136999845524,0.30817175647543316,0.30767027582735285,0.31634821022902626,0.3501471359734105,0.38986062326383264,0.4296394222486537,0.4694894493319408,0.52178107158857,0.5647725430206272,0.6185488411981996,0.6596185790341771,0.6993979606739291,0.7392956120318388,0.7925713003158785,0.8422687910217901,0.8902594179843923,0.9496350026074074,0.9883211056685877,1.0,0.9737015529389312,0.9143501857941843,0.8543782102961126,0.7944062347980392,0.7344342592999658,0.6744622838018932,0.6144903083038216,0.5546284332865659,0.5067482641330003,0.45691949356313266,0.3969603796331804,0.33698840413510656,0.27701705445159064,0.21851229587919585,0.18585594351863577,0.19452621044786156,0.19586977037164743,0.19587013722845592,0.19587013722845592,0.19636403076420006,0.21419895899335195,0.2182255857120694,0.2187458162231617,0.23685365817747295,0.24058899714641457,0.24580940205467794,0.26275279856103806,0.2798634311115622,0.2850181249328645,0.2699611020357491,0.2629520848835756,0.26259062553097,0.2471546970492433,0.24059342100793213,0.24013053602888546,0.21707856750465027,0.1828293732816828,0.16284033383023155,0.13454066862470926,0.13960986604256975,0.16886881706091428,0.1985620820184395,0.21752722550116577,0.21822811055010716,0.21822811055010716,0.21822811055010716,0.21822811055010716,0.21822811055010716,0.21822811055010716,0.21822811055010716,0.21822811055010716,0.21822811055010716,0.21822811055010716,0.21822811055010716,0.21822811055010716,0.21822811055010716,0.21819721521364688,0.21100915597178238,0.1961080502881032,0.19587013722845592,0.19587013722845592,0.19478799605453512,0.17710073581820573,0.17351259550305143,0.17351216390680602,0.17351216390680602,0.1735060201779577,0.1674059313127514,0.1514813991597208,0.15115419058515656,0.15104574021151462,0.13906281634974915,0.12641209215696447,0.10773128144743449,0.09301826730962892,0.06597605122948202,MI
0.19574790334249004,0.18288347498963642,0.17352381700543873,0.17351216390680602,0.17351216390680602,0.17351216390680602,0.17351216390680602,0.17241180499509667,0.15469095300511748,0.1494893407597937,0.13066520407912252,0.11680982282528651,0.08860910154854551,0.06805539939388172,0.038326446146450976,0.015314845356275697,0.0,0.016234993492129757,0.0332003079636527,0.06278104140622975,0.09263257740163455,0.11403321288237578,0.15237243272957546,0.18286431877932685,0.2129480042304892,0.23871549294357797,0.2589345426847527,0.28647254218332296,0.3217725235555293,0.35153399760315773,0.3831880024780414,0.4175672861957662,0.4194486835552804,0.41939587360805897,0.41105963277089774,0.39724646770236305,0.39631945749176634,0.37918454737024687,0.374737290252372,0.3746667261073662,0.3654468227978884,0.3524948951600684,0.3622464927627238,0.39680373423502857,0.4364051431139777,0.4764674047772255,0.52488310661691,0.5693158529587938,0.6103043831299999,0.6407612190961798,0.6685798215192191,0.7087319868716593,0.7333646885724194,0.7712369391176104,0.8009164842637686,0.8397949802349931,0.8850245687888743,0.9093403531160549,0.8791659560782161,0.8370738901613786,0.777571996061738,0.7176000205636646,0.6576523399733567,0.6045782982833705,0.5597803421941387,0.500070091893023,0.4400981163949509,0.38012614089687835,0.32015505017110835,0.26175620999490734,0.22035097940087933,0.16850878978019157,0.17636843148103365,0.1951875130769265,0.19587013722845592,0.19587013722845592,0.19587013722845592,0.19587013722845592,0.19587013722845592,0.19626282918062632,0.2129378740778476,0.2192272689382775,0.237595472833652,0.2431585567596377,0.26149756126374246,0.26294347453847466,0.26571936576533206,0.2809377944984357,0.26394606411679833,0.261916569232846,0.2443258546142606,0.2389913643613819,0.2147195711437342,0.18538130464212843,0.17187065894753983,0.1531298310993474,0.15948260337465792,0.18856538300798764,0.21467413305882443,0.2182258878294414,0.21828147954558963,0.2302900116220643,0.24050403521289976,0.24025086994710643,0.22490883164380637,0.21823562032478083,0.21822811055010716,0.21822811055010716,0.22105604864633666,0.23919648108021851,0.23321839950538825,0.21845411754109678,0.21822811055010716,0.21822811055010716,0.21822811055010716,0.21822811055010716,0.21822811055010716,0.21703666294946222,0.19915445561378808,0.1965683006422143,0.21479241071829502,0.21822593098906573,0.21822778685292255,0.216890921047165,0.19874878424569786,0.19587013722845592,0.19587013722845592,0.19587013722845592,0.19584089199917054,0.18872536411575247,0.1736756314490977,0.16329235391534658,0.14364046176571188,0.11526996250368793,0.09577401912448735,0.07623940337228285,0.04667400332966665,0.020452722517271926,0.017024001444772452,0.028405703582080832,0.04764015262460575,0.06696268412891815,0.09576165790562463,0.1323832289451765,0.16601311034629873,0.1773822742535982,0.20440632477617404,0.23454889257054745,0.26425622756568234,0.2968419404549376,0.3353030539650024,0.3652232636133932,0.3746683762145402,0.3747339238016556,0.3747305357711279,0.36922114293254404,0.3527066871353397,0.34456354417674007,0.33020587058421613,0.32621136999845524,0.30817175647543316,0.30767027582735285,0.31634821022902626,0.3501471359734105,0.38986062326383264,0.4296394222486537,0.4694894493319408,0.52178107158857,0.5647725430206272,0.6185488411981996,0.6596185790341771,0.6993979606739291,0.7392956120318388,0.7925713003158785,0.8422687910217901,0.8902594179843923,0.9496350026074074,0.9883211056685877,1.0,0.9737015529389312,0.9143501857941843,0.8543782102961126,0.7944062347980392,0.7344342592999658,0.6744622838018932,0.6144903083038216,0.5546284332865659,0.5067482641330003,0.45691949356313266,0.3969603796331804,0.33698840413510656,0.27701705445159064,0.21851229587919585,0.18585594351863577,0.19452621044786156,0.19586977037164743,0.19587013722845592,0.19587013722845592,0.19636403076420006,0.21419895899335195,0.2182255857120694,0.2187458162231617,0.23685365817747295,0.24058899714641457,0.24580940205467794,0.26275279856103806,0.2798634311115622,0.2850181249328645,0.2699611020357491,0.2629520848835756,0.26259062553097,0.2471546970492433,0.24059342100793213,0.24013053602888546,0.21707856750465027,0.1828293732816828,0.16284033383023155,0.13454066862470926,0.13960986604256975,0.16886881706091428,0.1985620820184395,0.21752722550116577,0.21822811055010716,0.21822811055010716,0.21822811055010716,0.21822811055010716,0.21822811055010716,0.21822811055010716,0.21822811055010716,0.21822811055010716,0.21822811055010716,0.21822811055010716,0.21822811055010716,0.21822811055010716,0.21822811055010716,0.21819721521364688,0.21100915597178238,0.1961080502881032,0.19587013722845592,0.19587013722845592,0.19478799605453512,0.17710073581820573,0.17351259550305143,0.17351216390680602,0.17351216390680602,0.1735060201779577,0.1674059313127514,0.1514813991597208,0.15115419058515656,0.15104574021151462,0.13906281634974915,0.12641209215696447,0.10773128144743449,0.09301826730962892,0.06597605122948202,MI
0.012371914348918489,0.0017724640781140444,0.033699640475927994,0.09457857650730794,0.1578355191514862,0.21603956907188038,0.2696520939222373,0.3314800981827113,0.3826166880183268,0.42336638955148187,0.44523592670406265,0.4959145617345819,0.5575172348430928,0.6083480567651329,0.6583581551795001,0.7005404883037869,0.7271616359768776,0.7504040415220694,0.7690675418800486,0.7945512774250649,0.8217328229208434,0.8533546604996829,0.8893666646958893,0.9318038358978114,0.9767177963357989,1.0,0.9831936860873811,0.9527399233160256,0.9173448158546922,0.8795508570319885,0.8356891050283513,0.7961622193316797,0.7649746709218177,0.7397279256882245,0.7158517960163073,0.7065533631815639,0.7057573191650071,0.6887187447146723,0.6584721417846153,0.6429911420772303,0.6351608076289605,0.6677528358342952,0.6967263685414378,0.7280601914859548,0.742057232988421,0.723607738313961,0.7213188048156947,0.7120757952910299,0.6931355925003841,0.6768413536888698,0.6408256121113203,0.590270336617476,0.528593182500817,0.4710398608549644,0.4168353696103755,0.35538475535474845,0.305111527591476,0.26615085115340653,0.23620625970244413,0.20282794727775855,0.1467211548504488,0.09931661551242077,0.07507906728229785,0.09012705328037507,0.1409214927946778,0.19233645712425695,0.2542562459345561,0.3111924265793835,0.3659571883697619,0.4284400212616699,0.48067465394795184,0.5378460928948403,0.5894946904715939,0.6450002286543675,0.6984738993791271,0.7463950717326204,0.7663792695953671,0.77425700452764,0.7964674869648829,0.8232802059265927,0.8592279684894377,0.8872133436591749,0.9151147829665729,0.9468328074711967,0.9796510305158801,0.9666693689797383,0.9241437270111401,0.8857314458467358,0.8469799083343901,0.8069427918794569,0.7676533478999166,0.7281479134975588,0.6899730169710585,0.6582058953600121,0.6363830672490578,0.6309589053914544,0.6211789959658125,0.5999329311346471,0.5884575477523919,0.6059142598864171,0.6405296979245967,0.6724493674843997,0.6955409170020324,0.685804702167923,0.6764551106077961,0.6722240034097822,0.6518162024739307,0.6300678950791512,0.613123470601447,0.5774290328298579,0.5195116564289242,0.46071020910775706,0.40769081955300157,0.3475085342695108,0.29574029693006265,0.24102944731485465,0.20597209067228572,0.16580957209985625,0.11293138607791042,0.05878411363017033,0.015956957065725863,0.0,0.0290106365069851,0.08009204580375617,0.138324855430078,0.1914033470433727,0.25425571458358975,0.3111924265793835,0.36595732120750446,0.4291074092446969,0.4900163717951891,0.5415857540773357,0.597497119008668,0.6478066427937583,0.6765175194676449,0.6951565002021405,0.712941466273115,0.740936334091209,0.7708867422761352,0.8050713749027838,0.8367264587736396,0.8666089836717346,0.898572187994418,0.9343959720219286,0.9394773535368564,0.9105664924627832,0.878925261709381,0.8467026212462208,0.8068941707827237,0.7691175671924682,0.7412031119273661,0.7253016375027448,0.7226245011202663,0.7288322525242794,0.7183253163730643,0.7072824930069466,0.7185289003568749,0.7433506973190984,0.7577710645094728,0.731310700123986,0.7046326635910853,0.6917943417498273,0.6855589837980092,0.6613966823913464,0.6404561755201956,0.6250562838294527,0.5766492363567934,0.513498611047345,0.4502618592089562,0.3934051461760064,0.33854381414226786,0.2799019056889436,0.23280125734198576,0.20609713969022736,0.16709911731892668,0.1141253331827341,0.06808956994337767,0.04500492273688672,0.06712326127033652,0.12769882831633717,0.18590128418383012,0.23951434038515496,0.3024658122996402,0.35868885637029235,0.41411969358316325,0.472214990620313,0.525553925002566,0.5788121962332649,0.6354991698590444,0.6862338328354651,0.7357425962880653,0.7653155714531508,0.7667256728270297,0.7753823792860426,0.7972587005442722,0.8250984988762067,0.8578240827018493,0.8942005320282487,0.931529505567906,0.9567369346484411,0.9405232828434591,0.9085756629470474,0.8706362102045544,0.8268904715000542,0.7800737541948508,0.7448375214708456,0.7131668202289712,0.6839069543948364,0.6762995272203058,0.6762453494428193,0.6762453494428193,0.6765268153053916,0.6895254783683566,0.7145942940449501,0.7426394640582417,0.74759780020924,0.7370208408389884,0.7357806542852945,0.7174577253334147,0.6925978725830886,0.6737032031935777,0.6353404579842432,0.5744896883702082,0.5227701377582807,0.46357534703690995,0.41205730390388906,0.3526693555221021,0.3020857349831241,0.2610876683449046,0.23285082074649655,0.1801605983300576,0.12921037300139537,0.0879672763467747,0.07979587808700939,0.12338277854302926,0.1762917162776585,0.23347771293758202,0.28762466953822674,0.34916419035081203,0.40059178417360064,0.46204279694245276,0.5162472881870417,0.5737364694902527,0.6299310862103424,0.6834087610512074,0.7339760484511721,0.7813942342619056,0.8094657145636868,0.8156958646146975,0.8285984170222864,0.8501622577132846,0.878180828662722,0.919093866070436,0.9546507877993289,0.9901194651616083,MI
0.09485041507901437,0.09485041507901437,0.09586351172492868,0.10659776662828202,0.09674615104135187,0.08666954737459509,0.07344552796919235,0.06316352865831876,0.05123512666122787,0.050471212174095115,0.06076963711251615,0.053879405544118075,0.04955370599276998,0.03915163667818389,0.04775530532711425,0.040684642517465175,0.035281993759233465,0.036929847156872864,0.052493783176197795,0.07300357515753175,0.10862958035215708,0.15902005042591894,0.2013355673969759,0.2533279040558556,0.304505199615984,0.3472445742447299,0.4007042999154229,0.44876454480820627,0.49415572532932295,0.5481372699115541,0.599950127871292,0.6423140834319883,0.6953619044740127,0.7402959278631331,0.7876221392129992,0.827006954901806,0.8627483180116706,0.8776512736668085,0.8471445832116657,0.8061917782420802,0.753800185678756,0.7029050121878884,0.6599725711817048,0.606388408903118,0.5522888485909192,0.5001740660072875,0.4578936300011942,0.4048813827522193,0.350856098105798,0.30385798489405813,0.2574047867386775,0.2037745034847771,0.16010020278654835,0.11215039538021054,0.07556111181407754,0.058873498338360086,0.058838458289627305,0.08376833757399282,0.09901828399089885,0.1093234274345698,0.10174219314544697,0.07440876056218748,0.04716471137448819,0.03597522801598885,0.046703010252535204,0.056183754775288364,0.06493392305889412,0.06841556886439104,0.07603968458365573,0.06579724906440987,0.07570613522225811,0.07993924986454326,0.07787837309025303,0.06608617283846074,0.06505376242903393,0.06456910290002194,0.053771431068201814,0.050160600095999985,0.050155473011121554,0.050155473011121554,0.05005851481091561,0.0422668354457687,0.04441585016452754,0.05014319159063296,0.05617502639355054,0.06496736587838736,0.07240986664913329,0.0896586875094858,0.10308914472574404,0.10536889704527441,0.09421511232039848,0.08589592525196288,0.08658213180414487,0.07664230975083752,0.04843704578683106,0.02812882757861157,0.020417215462686045,0.018676596572867243,0.006844510756125022,0.013393107125183157,0.008299057001696308,0.0,0.00658914835411295,0.014784786307819875,0.01025090192645095,0.020052881850925797,0.026631357268807943,0.05973411376650528,0.10002335534390117,0.14081899987086688,0.19144566368390326,0.23364623601440382,0.2859839543880729,0.3365079307021013,0.37005451312679005,0.40446294308100317,0.4576976864428137,0.5117987210496286,0.5659000496180853,0.6191438834098064,0.6615414796840628,0.7130733899302513,0.7573635967977101,0.806315666270427,0.849512255153563,0.8901462024535536,0.9250911698276112,0.9228236068477522,0.8796753104981394,0.8347895811314179,0.786195239319035,0.7321185111367581,0.6784953430172487,0.6351629939700412,0.584707269480321,0.5306114940507549,0.4767258998170383,0.4319943316626431,0.38318308505069254,0.3292616664845198,0.2841343309100921,0.23577357888185713,0.18181068005897716,0.1362747277179981,0.08973912962159725,0.06561742772361256,0.06598861027223624,0.08323799786418462,0.10993510940960016,0.12380425391292071,0.1080103845964806,0.09305982769626109,0.06912353856537212,0.03780670753565962,0.0493871381646116,0.07392038096468889,0.07778246569069092,0.06689283847194183,0.07931980735809896,0.0886074236226273,0.07661308424064339,0.07407163543765094,0.08093535161360155,0.09169945260565138,0.08216562332912991,0.09052865392963705,0.09191059552230607,0.08081208549716346,0.09015233844341664,0.09641283455103133,0.1086626330707623,0.11956514128873819,0.12462579172100252,0.12466935438759075,0.1299092661366661,0.13876251857874733,0.12785234430831816,0.12504850027253855,0.13597908818750248,0.13953698722472074,0.13943684794715017,0.13412774862232046,0.13085877706697557,0.10609984610416312,0.08645850956115542,0.06833446376918939,0.04748627497087732,0.04532770146015919,0.03959512797683562,0.026436723481422675,0.02581974025609579,0.02539267933659284,0.031062083088464476,0.028421068849068476,0.02045264167993599,0.02037717972507247,0.025206834328783234,0.04273433032270768,0.06670595275581404,0.09796687265154613,0.1344776087390458,0.18457127139470808,0.2386629639680593,0.2927642925365155,0.3464099030141208,0.3894649803915229,0.44017679181018377,0.4927203521493433,0.5347935473950716,0.5875761163415021,0.6413873407543513,0.6850409827410582,0.7349915766162933,0.7890510937196384,0.8368278712874986,0.8821060725365002,0.92495370786032,0.9655833080752587,1.0,0.9927809272157719,0.952707681492277,0.9083660005622516,0.8594045890890616,0.8053247196758972,0.751311892697351,0.7048229329981885,0.6578804046594326,0.6038177194247032,0.549716390856247,0.4956150622877913,0.44151408466032516,0.38837575469137997,0.34607179729091486,0.29410682532572663,0.24077790212728312,0.198349787703068,0.14794886595431178,0.10659405123725385,0.08196247436534865,0.09285348210685473,0.10329427572648697,0.12765628323070555,0.15186522938646574,0.14315537060568229,0.12160640642746223,0.09955717350028692,0.08426297378871883,0.07268329323479206,0.10157434604727955,0.12136290266371974,0.1048190676864702,0.11049105938805237,0.12277178987837312,0.11158661505315148,0.12094250557513142,MI
0.9754748320053506,0.9353378599847435,0.8942720469428447,0.8561166035236702,0.8125772895385772,0.7688117468274225,0.7263093016919999,0.697134576652142,0.6628375919583576,0.6193995517806234,0.5756333001493996,0.5325829225747469,0.49532649802317263,0.45288191044496484,0.4091256707022093,0.3674219699112462,0.3297887262980521,0.2864232976345358,0.24666719654696312,0.20731553767932542,0.16641158840825065,0.1522426488997357,0.1582180938863058,0.17180529144660994,0.175006364926926,0.15867764075412705,0.13889067014885703,0.1412118148633379,0.1431886899325685,0.14319630552625018,0.1431892098824119,0.14127608432474492,0.13795061334486092,0.14080782106222012,0.13506073849242495,0.140091083312321,0.1502397478512758,0.15849934437400726,0.1626841316446579,0.16270232258398876,0.14525856610476606,0.11985730289182439,0.09323365303433184,0.0641480559639136,0.0366569472999041,0.015223369411897503,0.0020155215471966414,0.012729113519638569,0.027316203911569747,0.037988349529806564,0.04442539139372381,0.05651975120365771,0.0638826082213082,0.08426758701565507,0.11426003752168534,0.15058281691229425,0.18986962467305846,0.23328112295653525,0.27120865183198917,0.3125344342265379,0.35436468464842696,0.391918168531876,0.43527492859807193,0.47777454821397836,0.5150147146185415,0.558026055534298,0.601787991971737,0.6438465649835121,0.6812373779088656,0.7245405806189318,0.7678403931902751,0.8053294303352225,0.8472949700361112,0.8909827621818001,0.9304305980070637,0.9697773458787302,1.0,0.9889995263611024,0.9519164136353568,0.9125108129444386,0.8728810793375774,0.8291860075677677,0.7880274713090105,0.7570062365239121,0.7180242012680991,0.6907810172201283,0.6530173717338417,0.6093382112723971,0.565576915855919,0.5235459164275484,0.4860929308996631,0.4428228616425325,0.3990561946504576,0.3552893634396712,0.31152290925985615,0.26839445836741205,0.23111053336628018,0.19045405868680465,0.1568404800211649,0.15049814238221848,0.15408723349536646,0.168819942671254,0.17404674161784883,0.15880569299168057,0.13574635785313327,0.11935645595895572,0.12311803987139336,0.12750395642819634,0.1340054087449436,0.13464825412491654,0.1364012990002188,0.14030146027852086,0.13349858381004642,0.12664928054222924,0.1217528282115703,0.12348463143207988,0.13258649469456185,0.1425742319652874,0.15224497082337085,0.15963669146447157,0.1515009044979514,0.13193114403859796,0.10759415509151649,0.08225002007855298,0.055113044969223424,0.025612371511330556,0.004114367676036901,0.0,0.014388731293283996,0.029235435763426354,0.04189227423175934,0.05127017496852693,0.06288427394237628,0.07852815794342294,0.10110925228958623,0.13129541851030857,0.16722764529254697,0.2037526584720346,0.24141101189455005,0.28187369078704894,0.32560840894040166,0.36937524015118806,0.4128760510283829,0.45080357990383724,0.49213432964429615,0.5355132116310257,0.5731104036271586,0.6148795641456026,0.658636072696061,0.701025515336207,0.7382981980347927,0.781387612268341,0.8251492489700896,0.867071455864262,0.9045620240145196,0.9476900938179114,0.9801241760649266,0.9776108657978853,0.9460950134339177,0.9046288818225134,0.8609145259178463,0.8208837977884382,0.7817997575263704,0.7381233697777001,0.6943565385669133,0.6505906920328719,0.6076964610938023,0.5705050691302727,0.5278399017998172,0.4840746861636849,0.4408290342839274,0.4034913189972973,0.3613438802844866,0.3204501827162525,0.2821427962679317,0.23857781354424046,0.19499837556780864,0.16356001586796132,0.15490700790095668,0.15155219224587846,0.14344147766860238,0.13912407240551694,0.1495814509171609,0.14552894418241258,0.14320715539769613,0.14319630552625018,0.14319630552625018,0.1431834324570389,0.1406606828793091,0.13489730074020256,0.13434745451692254,0.12817792052578714,0.11980861573561441,0.1175500943074217,0.1183966094071236,0.1298168841249998,0.13955051673624408,0.14308192427845,0.13782599492796077,0.1173058263050244,0.09019863551193552,0.06175612448301093,0.03805840721647513,0.015583844399527758,0.010038334480860556,0.021820648374871965,0.03206163337820178,0.03997737723101635,0.048908486793355355,0.05679562751064404,0.06871752860378622,0.09806378728334919,0.13437698285030142,0.16910255772282556,0.20678829429933687,0.24716199902777003,0.2896274807101362,0.3268676471147003,0.3698016396742172,0.40915784575482506,0.4489139468423964,0.49251465347496515,0.531277148620849,0.5652138685181944,0.5986916644961187,0.6418229671770945,0.6800543000014858,0.7210383773123323,0.7647859221244993,0.8084535798025856,0.8473687383674924,0.8875726384929976,0.9307505105263538,0.9618924198416505,0.961675444569563,0.9302820390569879,0.8870310861354231,0.8432643780886706,0.7994975468778831,0.7557307156670978,0.7119638844563103,0.6682227529735507,0.6274986799849143,0.5890393505074474,0.5454486990451566,0.5016818678343711,0.4580817802358028,0.4197103918208722,0.3789172276664827,0.33681144993823864,0.3063263434933088,0.2730544573311726,0.23444522790274536,0.19441778911053453,0.1587637868119567,MI
