0,1,2,3,4,5,6,7,8,9,10,11,12,13,14,15,16,17,18,19,20,21,22,23,24,25,26,27,28,29,30,31,32,33,34,35,36,37,38,39,40,41,42,43,44,45,46,47,48,49,50,51,52,53,54,55,56,57,58,59,60,61,62,63,64,65,66,67,68,69,70,71,72,73,74,75,76,77,78,79,80,81,82,83,84,85,86,87,88,89,90,91,92,93,94,95,96,97,98,99,100,101,102,103,104,105,106,107,108,109,110,111,112,113,114,115,116,117,118,119,120,121,122,123,124,125,126,127,128,129,130,131,132,133,134,135,136,137,138,139,140,141,142,143,144,145,146,147,148,149,150,151,152,153,154,155,156,157,158,159,160,161,162,163,164,165,166,167,168,169,170,171,172,173,174,175,176,177,178,179,180,181,182,183,184,185,186,187,188,189,190,191,192,193,194,195,196,197,198,199,200,201,202,203,204,205,206,207,208,209,210,211,212,213,214,215,216,217,218,219,220,221,222,223,224,225,226,227,228,229,230,231,232,233,234,235,236,237,238,239,240,241,242,243,244,245,246,247,248,249,250,251,252,253,254,Target
0.582750961084725,0.6776459746150292,0.8023912057073184,0.9199380136905604,0.9575720168367794,0.8640726593011654,0.7402624548917411,0.6190043893161552,0.5257345892535406,0.5924741565507072,0.6529718679104213,0.68782825018766,0.6766532941082422,0.6687886482668817,0.6519079533720871,0.6094303301687787,0.547123942141861,0.4985207116193009,0.4149293835974279,0.42963542810092425,0.45949973934710764,0.527569583896565,0.576580496816574,0.5851554448982772,0.5708052358219011,0.5683395054002607,0.5660913887660226,0.5388555568115891,0.5278457140767521,0.5429566471148486,0.5591861670050036,0.5433939855138576,0.5378160362604576,0.5042286959538855,0.4331797700659723,0.3591301627998136,0.27416265781155724,0.17872948006682732,0.12425898490377874,0.16765436748401763,0.22579464290597295,0.28777964417986857,0.33609434211297673,0.390490520758465,0.4309935760794352,0.44546439742735844,0.41960356365482676,0.4227699146256465,0.5008257799661195,0.624427657821347,0.757196261459621,0.8492678913438954,0.8265048235945982,0.714943116243274,0.5859909403839851,0.4509986968367179,0.40249758618933695,0.488139352704541,0.556816877086542,0.5484560315250211,0.5412804213886235,0.5406820710285412,0.5214977773616458,0.46594671990134584,0.39718076109074696,0.3413493664299998,0.3397080946690898,0.3800236953674916,0.43629649895928546,0.47286344783076606,0.46694450271389654,0.48439087016715865,0.48340077971985584,0.4565301473289325,0.4173768067906445,0.405815807262218,0.39889411600283653,0.36474897795332106,0.33068456182107786,0.31349818505860716,0.3152417610238545,0.31645048346343563,0.24679857250045378,0.1599926460811827,0.1252312429467799,0.17220897682715153,0.24434583939753063,0.3234262816516904,0.40478510965653625,0.4767368168354529,0.5315675982772707,0.5411983301317149,0.5414258169083443,0.559674780353459,0.6416548187641848,0.7572629331815439,0.8789362599710899,0.984306597437206,0.9999999999999996,0.9011238980084717,0.7612483615000492,0.6164652645914122,0.541457228896872,0.6068102357869232,0.6709583301414823,0.7109664804933185,0.7655585438062347,0.796486344435126,0.7649846954720414,0.7232315838374626,0.6595114110937534,0.5904149530138398,0.5126198444710774,0.46088592564916064,0.48481585087563284,0.5556528146735533,0.610742404392353,0.6120394303139522,0.608588669519261,0.6020795992200108,0.621200354406898,0.6225303822011514,0.6200504044452475,0.6115788431706215,0.5994364448682998,0.5800158190103777,0.5156196403970603,0.4853200617207354,0.47478558000329896,0.5020857413729316,0.5136345439037959,0.5436486884707121,0.5176105628639056,0.4924374966749965,0.49583639933077306,0.48849241681215494,0.4846502973091371,0.4164659730879001,0.3529006165712194,0.3583141988984404,0.3753835083937651,0.46411998738034344,0.5438539890685035,0.6159558336023738,0.6477212316193444,0.6817376170902159,0.6514125877449044,0.5995881138404173,0.5389834350172511,0.45841626059623186,0.38183290845031825,0.43033909976377815,0.5485822967038678,0.6765323252716962,0.7666155917199746,0.6855928814960097,0.5719488431502779,0.4893537631875913,0.43718201316629957,0.4320102089593205,0.4284021393563564,0.4175487558364481,0.4228357125145812,0.3654731059249996,0.28914338376556037,0.21016603193124572,0.12809982225626326,0.05862712534843029,0.008478670066230709,0.01746965580376303,0.09099574602370941,0.16548433082304959,0.19804583829091227,0.1863775221525823,0.21356663902716155,0.23725167678971948,0.2813444637103184,0.31230784235313136,0.3028922917321162,0.3105640554805169,0.3413577393108729,0.37573207413468657,0.3736184259361166,0.35351042888806417,0.3517687843387365,0.3329045953139631,0.2582534171855291,0.21786625673680193,0.19199085960572893,0.21744915473152693,0.30005286467006487,0.36085500563562123,0.40202857560797645,0.43500941935175463,0.4332668395886974,0.43324579531547913,0.45412905936271075,0.406396417437922,0.3017815696241244,0.22854273799748404,0.2746812761724775,0.3839804987231168,0.5185612766716683,0.6398358386952112,0.616372488798651,0.49686538614848574,0.3925266194680872,0.32510677631071383,0.2938635518977484,0.3248514041049151,0.3375002924321895,0.29208276020668356,0.23439614310449697,0.19141617247434395,0.1213394172756943,0.06185858307735215,0.0,0.013554704060754208,0.08676256566797269,0.179168417121915,0.2732413678442378,0.35500559633680107,0.42291457675768873,0.4286049532587817,0.44567200825551323,0.44890610131118125,0.43625023969574483,0.4252509808479563,0.44608187308984926,0.46341870917994266,0.4585768149847014,0.4732832282614168,0.4715367904986274,0.41470815264001404,0.3410800311089788,0.2910198374230162,0.2834564568253719,0.3524057988684768,0.4279317683065522,0.4852488385599787,0.5374944521397604,0.5668837786019698,0.5653161631569827,0.5924340157089296,0.5564746311989031,0.4762779566782487,0.38005594635392326,0.33321759732392886,0.423708289284495,0.5523280944276352,0.6765969841527153,0.7298433549897196,0.6397184605007458,0.5246502296795961,0.46068918451993346,MI
0.8123624661147542,0.9051442476465104,0.9797093157838312,0.9147084541532924,0.8071623921069868,0.7316743243759332,0.8142132893540079,0.9326549578310299,0.9822583221018393,0.9703444487823236,0.9536559336539363,0.905502114492613,0.840385856161523,0.8472049907781689,0.8956720413349069,0.9455977884092639,0.9375665820094303,0.9301017313316717,0.9164975667445314,0.9006779696894336,0.8708054529119096,0.8208877595535391,0.7569512160559158,0.6757448814398614,0.5861152702412111,0.49015490624818936,0.3987061791311901,0.3269062714829989,0.3539274562457675,0.43875941170232213,0.5307168624343395,0.6230252511497278,0.700203045267465,0.7758609323280425,0.8845477235084189,0.9941991166333115,1.0,0.9039795625729536,0.7853717249142815,0.6535967494002533,0.6267067280798906,0.747417925632309,0.8697351615160418,0.9449212924496764,0.956979336933848,0.9495746055058514,0.9170474630609045,0.8464368591455425,0.8103482662775812,0.8549709315270642,0.9265639430003572,0.9361284050294079,0.9148233016142093,0.8960638310743789,0.8528138013053916,0.7769748279792084,0.6952018062587926,0.6122254544638275,0.5148555419176724,0.42675112237348944,0.3835110439655409,0.4401855912627535,0.5309950664774754,0.6184167714144033,0.7014702334306726,0.7766900632109754,0.871220906947562,0.9729724020964592,0.9846797711314657,0.8884653152931996,0.7590514394332062,0.6234644404974823,0.5390232493006173,0.6282443958204511,0.7601659081773464,0.878826023827143,0.9381033628049602,0.9398848795451507,0.9139497126796803,0.8482982726152306,0.7825271974491312,0.7937622675446669,0.8624848424902276,0.8932815193275765,0.8795174212088464,0.8640792256465919,0.841899746943811,0.8036827280181762,0.7573960924123897,0.6841781716991298,0.5954150643078289,0.5097785610400809,0.41882791873979075,0.3203542335471883,0.2776165119352232,0.3433956163444831,0.42990430682883574,0.5166659506210767,0.6049482440103553,0.6810356543032197,0.7656909946799351,0.8719855291002956,0.9179118529002013,0.8439567750323422,0.7329179834869008,0.6095816496692659,0.5957112944472045,0.7211658220551906,0.8451882160134625,0.926285462441971,0.934358785750637,0.909234810389973,0.8660481359467069,0.796328283399959,0.7810013174307406,0.7876279671419373,0.7204545994630225,0.7088912280285546,0.7796075270002216,0.8357965549486988,0.8595733900605986,0.8321939925496298,0.7511561070805599,0.6207410674456035,0.4876636390759259,0.3477147289845477,0.2133607479140105,0.08044741577632131,0.06431041639205315,0.18388979958699814,0.3201805084775642,0.45538203522218934,0.5883598766661993,0.7163091381723494,0.8075254595193604,0.7535077108017671,0.6598384037286262,0.5876003740494165,0.4999372966940885,0.40811655450255024,0.32458993448217655,0.24413207010310511,0.20950422297823046,0.25971663460481764,0.35278857365929595,0.4429098502315929,0.5322201342204789,0.623928055590826,0.6933469476497627,0.7439146958037872,0.7867432391554701,0.799279991522504,0.8070838182062925,0.8241055883659625,0.7656915139529907,0.7114888307063723,0.7042433312000358,0.764370105222226,0.8392201807329722,0.8681654622132511,0.8681966377576682,0.8275775944408714,0.7058558226159497,0.5715235090427635,0.4334808810557158,0.29491615509340674,0.15684969664273574,0.025482194682153736,0.0,0.1254797002059389,0.2698993073061824,0.4044652763196357,0.546778394982582,0.6788144464388948,0.8042019577244148,0.8792877483897277,0.8148387672000554,0.7239057959189434,0.6464197006886159,0.562857178893962,0.4744625972057097,0.3817484188159055,0.32212222668157375,0.3258275818942362,0.4009040681442033,0.4971112524335397,0.5877273789645932,0.6686153592717514,0.7559600553063235,0.8215941466314294,0.845750444057285,0.8659330893383848,0.868878968175546,0.8012407599891085,0.7467269243125441,0.7426694286202453,0.8159301317182881,0.8797215704074097,0.8987319583561115,0.8746184373102066,0.7699275728714574,0.6396977107320967,0.5062250319623649,0.3666554645943787,0.2311439552395349,0.12372366909436838,0.17621148602033276,0.31023715748928904,0.44464916099938945,0.5813132103540637,0.712784913014203,0.8363449696833993,0.8762258278564476,0.7844977031648224,0.6884657345557215,0.6190382306096587,0.5348276576815594,0.4376057719129758,0.3499864094280598,0.27686545178693756,0.26672761119979205,0.33197824556414446,0.43274697992377886,0.5262647701320136,0.617333213186094,0.7035173887812967,0.7621408717091391,0.8055375541992631,0.8405694546081692,0.8468864776680207,0.8466814196868726,0.8617567531244807,0.8680412794651313,0.8066732520882143,0.7630412329830154,0.7407811447899282,0.7755848762007349,0.8514916369828405,0.9008863268546481,0.8991877095601613,0.844839957034857,0.720288584841827,0.5841110518398316,0.4483304647420998,0.3255620585600365,0.20702486980446722,0.13885012510617134,0.23452397632196043,0.3679256505777655,0.5077855192200826,0.6392858468188471,0.760584975456136,0.8540239371544329,0.8154169750048279,0.7336231222345613,MI
0.8899922082619847,0.9190840650460326,0.9389167951831607,0.9319864804872726,0.8742975110020488,0.7815004836188091,0.6811252179451588,0.5805853771642082,0.4784692849772869,0.42639907747778527,0.5132287714616794,0.6225349560727802,0.728271196956108,0.8265279420684475,0.9246540134943777,0.9987055264902713,0.9999999999999998,0.9743684010964861,0.9449954505342768,0.9236577907416017,0.9477114628905452,0.9574795490810326,0.9575762088445561,0.9569736984266768,0.9467089086752087,0.9422424424859834,0.9422098182456942,0.9421790053029129,0.9379432553102987,0.9275292146340377,0.9263197138747021,0.9204467282045872,0.9262007031259276,0.9268471593268901,0.9288238471277663,0.939259726871738,0.9145448935550726,0.8554513055391164,0.789473145445373,0.7139110379350335,0.6386550757732044,0.5754990034811394,0.5932368876171947,0.6491293896354395,0.7091366433112125,0.7641513400565974,0.8153153530157196,0.8549687069197918,0.8795193005359538,0.8960013371640609,0.9112962103002278,0.890629070569694,0.8085313593133303,0.712608168103378,0.6116082865513179,0.543728561174196,0.6008489873417655,0.707526463490417,0.8058958298176073,0.910656975156457,0.987812036454361,0.9810296129024765,0.952722589723366,0.9255396951405339,0.9104151691827911,0.9345722099461355,0.9368291359092586,0.9272761395395832,0.9268494547193582,0.9290859663506164,0.9361908079063876,0.9331952802028616,0.9386223087391488,0.9322216220948312,0.9415785253120605,0.9422096670242086,0.9425116718542059,0.9504021250965973,0.94574072593576,0.9419578308431056,0.9276721579191951,0.8761133915951167,0.8110693846787524,0.7345517758291693,0.6578343102231223,0.5843344392332657,0.5544923542750941,0.5928835403304153,0.6572985130277849,0.7076380850353152,0.7578483281563699,0.7948851781346404,0.8307257246204556,0.8506201645212255,0.8591035030710088,0.8265996416459556,0.7487505692515131,0.6524643347677765,0.5544297062744856,0.4516883946992516,0.39279572389056727,0.4682686220548786,0.5773980984200173,0.6830231561409874,0.7767078540056878,0.8488767360706835,0.8880507980549861,0.8661216832028062,0.832397458735157,0.797818430020208,0.7853034287688268,0.7939829337179212,0.7600731424473703,0.6917105085535591,0.5869981697957869,0.4894405426945927,0.46414052517108817,0.5169433675332782,0.6225447391309851,0.7132819664057932,0.6987707089097948,0.6044140482124962,0.5023033637725913,0.46254026162288997,0.4918098889612874,0.589705009418301,0.6944901234849084,0.7588544237834733,0.7966750303312027,0.820876519613478,0.7673232670135952,0.6709872181598924,0.5686631486909783,0.46600568694999756,0.3649324589576677,0.2564622376096577,0.15752099075913661,0.0555704240361361,0.0,0.06338902374968591,0.16101507213087807,0.2657631521937802,0.3658859080239021,0.46946727955445433,0.5708379381211828,0.6713205391523263,0.7621282984760105,0.8089386738110125,0.7983140814937,0.7663826063203618,0.7319140310977017,0.6834595916674975,0.6349696642256013,0.5743694671721233,0.5188894757769258,0.49502212417474856,0.5304349277016212,0.593615799396723,0.6686224339100704,0.744963155300921,0.81999682474841,0.8803335374828054,0.9040254087259647,0.905329086602767,0.9053301559890052,0.9053300679268517,0.9047270582729967,0.8945222169458764,0.891629584337301,0.8961098422377278,0.8806577527566344,0.8888848748283646,0.8899628144749643,0.8899636300487181,0.8899584155697318,0.8874873184169865,0.8636659992858335,0.8545761599705213,0.8858907891265912,0.9149108003447146,0.9170588739388024,0.8424228888014136,0.7431639381591999,0.6421849506293118,0.5333448710325566,0.43291635523328,0.32942701257920093,0.22007636818145127,0.11316691092884312,0.05822316655887683,0.1167863222776897,0.21870440849729933,0.3167245660955196,0.4244940472110794,0.5257920619933201,0.6277718175806279,0.7268197542033683,0.8200244348803933,0.8571489497922975,0.8435457194998273,0.8190964396563414,0.7800529532412457,0.7291868240242196,0.6744725131183225,0.6155643307388694,0.5567781114483743,0.5249301101543311,0.5492968006982564,0.6143319657304083,0.6888026944921062,0.7639872738291211,0.83423769992872,0.8876429506515235,0.8919201823408576,0.8899692222251583,0.8893812654639228,0.8792547517533189,0.8788621855396415,0.8885220548216377,0.8822314668693123,0.8992214031814403,0.8983505975762791,0.9026012276734254,0.9053221154030477,0.9068457097342832,0.9181132629710487,0.9134236146194581,0.9117414938851904,0.9066670281702869,0.8672416913184156,0.8643380412415389,0.9038934234583069,0.932548139308863,0.937511485745343,0.8633901046616621,0.7607384542054156,0.6607248743131631,0.5568786917196229,0.4504084590752966,0.35225992194916667,0.2460271294726084,0.14900845056112577,0.08040215907852954,0.12889870301086837,0.21017635628980247,0.3036502282186784,0.4017841159678135,0.5079404860960508,0.6058165275198977,0.7079240771549464,0.8051302759060424,0.8834966483407241,0.890921854519821,0.8623972225429755,0.8321142820531533,MI
0.6995477730089035,0.711427598385816,0.7633360950179182,0.7981881832259048,0.8156872730140527,0.8324929785181485,0.8605256661129772,0.8553915104471441,0.8750557526319356,0.9096330795925467,0.9610407193142496,1.0,0.9947118714707162,0.9179354296281894,0.8184495069943951,0.7147107105391601,0.5976835642836398,0.48776336690420674,0.3776895441013477,0.2623165930589182,0.16284540926349456,0.0924949288654977,0.10355377514688424,0.15960957030962586,0.21990671092177339,0.2773779523914399,0.32921358879849727,0.3776396191310578,0.4023141213847228,0.4361950641643162,0.4806835359814894,0.5313275268161077,0.5727592695291035,0.5266109320238495,0.45776869411184595,0.5270441574325297,0.6188692723699969,0.6642259247557205,0.6472708583935334,0.6510088322045302,0.651773549318801,0.6113969025119665,0.5614939213878003,0.5356840809404075,0.5728181973541284,0.6322223894773393,0.6701366102426114,0.6765344311607087,0.6765677843151723,0.6729404328253015,0.6641035000956386,0.6543867773869048,0.6228734723550424,0.5850606179218745,0.5242975763229514,0.4494974137730603,0.3675504979880784,0.29113716758794617,0.23704942137124885,0.27606841802893234,0.3375935119430551,0.4082754415810066,0.47658178698144393,0.5377959906229721,0.593745772955613,0.6484555858922265,0.6921062855081983,0.7457540194276189,0.7885039725317773,0.8273523216997836,0.8870681468369819,0.8580263091083689,0.7795715275879314,0.7335041411716401,0.8141091374125424,0.9091064229433972,0.9501391034596458,0.9166946328604646,0.8963877127330724,0.8753132169284754,0.8444016629083486,0.7919011299206238,0.7426976291628118,0.7567146453099998,0.8040951082157166,0.8394080307506298,0.836448714151488,0.8196547322524923,0.7756945402860325,0.7531161256034276,0.7410721853189672,0.7150919584935074,0.6957190993273517,0.6575514211533888,0.5929533583802442,0.5106043795158048,0.4250702495556604,0.3484890346139595,0.2750529696646278,0.27422631747988335,0.3281014709400436,0.38558334482926826,0.4488674894638165,0.5000528229293204,0.5517787658799711,0.5728708630745221,0.5888350110250107,0.6231954521431242,0.6710785874048475,0.6993456818462995,0.6353195680119659,0.5776743408823535,0.641172981267284,0.7410592262161595,0.8193175123014917,0.8230489772784724,0.8080004106152772,0.7932505698357675,0.7571969915597276,0.7037311303015419,0.658424031332173,0.649604538434525,0.6963552880667296,0.7368259696717159,0.7376740657998644,0.718523695730982,0.6752946265700746,0.6568084195157278,0.6140992177011042,0.5798601160559582,0.5860193456861422,0.6253936648513112,0.6748304032570056,0.7194788749259571,0.7264132243193893,0.7443032238189806,0.6972619088595127,0.5966844518678966,0.4945624122254473,0.4028640642567769,0.3900729461248549,0.47168007549372604,0.5696210682446665,0.5822592625166916,0.5440192877873433,0.509985566144358,0.4884018313954117,0.4669144102932088,0.42327475630453515,0.3676314316485718,0.3040099032115373,0.24412715731580326,0.19499325294100922,0.1766592571776271,0.2273662741205209,0.3023892531217105,0.3832393823227709,0.47645849304592414,0.5502847441996996,0.5995785330680228,0.629805593429706,0.649541898985019,0.6634072454516788,0.6819132273233648,0.7310831819246291,0.7534199532483856,0.7566797725073804,0.7311631702188004,0.6822691806406098,0.6539506340654007,0.6775405234155825,0.7252274971731052,0.7780250934708,0.8154175590491937,0.8369203691986633,0.8606982815456248,0.8125285369545856,0.714125534846707,0.6032832131012302,0.5666720456684011,0.6378813231530871,0.7374868728238426,0.7725051319869989,0.7244783343766743,0.6943188175870758,0.6487831746320989,0.5987626961498069,0.5529051329924402,0.490011323116037,0.4263777170568055,0.3609696952106818,0.29657844000368927,0.23026782890026531,0.17291481529015762,0.15368306175018498,0.2047847505695377,0.2773836199148185,0.35194459542247136,0.43591968152016625,0.5039044000932034,0.5263112038148647,0.5585583957555849,0.5681866115433998,0.5772796539958245,0.5917073917623519,0.5936235079613854,0.584111033034433,0.5452501445506273,0.4878905000491556,0.4522394574349926,0.4557846933316445,0.5043025318601568,0.5548890617822666,0.5797575630365106,0.5660263601692157,0.5703496638552985,0.5612201103830818,0.46681018997573753,0.36327962562300087,0.2772014428441798,0.29047122630506195,0.38317412227976133,0.4673197875352333,0.4568828617729621,0.4123142594669176,0.3632383928797336,0.3309576019718272,0.3007837105724782,0.25675897779273393,0.20834672349244876,0.14630237335085727,0.08151755752055356,0.02862576211457757,0.0,0.029950393939441433,0.10429488254838182,0.19649875765924651,0.308887280912987,0.4280627118275686,0.5472010639395397,0.6588599761073608,0.7667476797868145,0.8647089096273475,0.9007765222490809,0.8604319243013143,0.8219773996882411,0.7870712854172184,0.7673994552615766,0.7614079928375106,0.7444402316504934,0.7299230981673088,0.72568116273776,0.6807271664426793,0.6335916651592024,0.6158419480534452,MI
0.4169803766015976,0.38548829406593255,0.42667246653168434,0.49572750952114086,0.5688653352225237,0.6298821824768921,0.6946299909323197,0.743902557622468,0.8259572863488702,0.920168613478761,0.8857532290449988,0.7923855413390455,0.6688136955252548,0.5313132132170115,0.3748002490132194,0.33076981510822234,0.4646652442111283,0.6152583056607805,0.7424621095087027,0.855486458466411,0.8323502684993049,0.7545637211076213,0.7559507278164035,0.703816120619503,0.63357418817623,0.6476856514257876,0.7263212022038537,0.800152103744042,0.7866795709941594,0.7516422660828392,0.7515998149051142,0.764538945549655,0.773821279742553,0.7745839474320202,0.7825456623745146,0.7627209828880157,0.708046688054687,0.6574618714849643,0.5776714841142172,0.5359766279148235,0.5641624489056878,0.6199842494056838,0.6411104831053662,0.693903792814011,0.7498929220233257,0.7982006026208599,0.8647631916656855,0.9241190193714517,0.8562903028045974,0.7628912823900191,0.6447987304328975,0.4835185348030433,0.3301786062652958,0.2561090652733027,0.39802842029561214,0.5588736297532626,0.7065433226584417,0.8398905307672622,0.9685832533701215,1.0000000000000004,0.962950531142464,0.9189355039402147,0.8203957922686365,0.7413982886829413,0.6983789356491052,0.7299555306520626,0.7966957313459537,0.8091521559602639,0.7853539435349002,0.786376069622611,0.8382070667199115,0.8454257905785796,0.8333212624915043,0.7546743711900299,0.6842638818801219,0.6330233417895106,0.5864237085370649,0.5497945850639288,0.5676161809686735,0.6370063792334935,0.7000967231235333,0.7619717551837506,0.8008484524434221,0.8131028242256497,0.8106864753946659,0.8637147821240716,0.9192080655659525,0.8296178179693761,0.7203834661097184,0.6115871490594817,0.4702985239659516,0.32288340584334563,0.29662265846423796,0.43560034544178006,0.5866578138428111,0.7222103233060984,0.847749277112134,0.9240249718067131,0.9148134705289608,0.9370376752269922,0.8682758468652048,0.7798035934945573,0.7224865278107049,0.7500151150620531,0.82962587510448,0.8650331810932594,0.8545690777014294,0.8264469574533524,0.791299693379306,0.7611512777742164,0.7397914786670658,0.745878210479257,0.7289369913534558,0.6707837050260905,0.6038650971024926,0.5293676812703532,0.47102388847251797,0.5061314106747647,0.5858023537445685,0.6460710205884799,0.6672008908602218,0.5833519935829341,0.5026499132022537,0.39008266900814714,0.22057500074985503,0.059846502531393675,0.015202077715079199,0.11542325585369051,0.2860371601374112,0.4173546361528726,0.37661676655909604,0.21849854806881952,0.06033664984596987,0.007523520123784877,0.0549990289028055,0.20962037680775403,0.312923862037505,0.31037118535612596,0.37019751660061884,0.44815426325570185,0.5063763195515363,0.5708215515761483,0.5898920805267376,0.5906590479172649,0.5959618832038847,0.6408977191276501,0.6734016594469519,0.7119960677088062,0.7271673169360162,0.6696272479909982,0.5981385725156261,0.5612938828619369,0.5882726212340583,0.6857242432174684,0.7704091453129194,0.7837613618502544,0.7549345924409585,0.6680943349493362,0.5255196225471122,0.3704756567730847,0.2201501216487416,0.08219793060532599,0.023045870048894468,0.12069976053688602,0.28957058283691994,0.45876034841569835,0.5881964952126171,0.67500629760637,0.6957803416999035,0.6571849451295679,0.6672614842912519,0.6374431721592768,0.5881405468844059,0.5220459750097652,0.4463516810689412,0.38773466563640735,0.39541537204651167,0.4313447437788973,0.4702073919734553,0.5231498990750638,0.5800087338588109,0.6580157475258201,0.7008616113418262,0.6761417255835158,0.6336777882599578,0.6406889209597968,0.6476357157994843,0.5984823053313586,0.5315005157299537,0.5519110790621817,0.6151912526650709,0.71009837827259,0.7870179121006529,0.825989488572803,0.7869608293529216,0.6612108155129817,0.5097299713046595,0.35460310603581346,0.20402934173210197,0.06950321522302083,0.04022047873987633,0.16175167216605146,0.3203590858411127,0.4785003358930138,0.6325055162068209,0.7317089198597952,0.7282698177852382,0.6623191969785887,0.6148037157105999,0.5532328375410587,0.4903351649413348,0.46233452990089097,0.4129561799664745,0.3725002837717799,0.40404287519734705,0.4807297305658973,0.5486502001217723,0.5727672476368251,0.6212473612235967,0.6372017465308519,0.6226137927928481,0.5950873468232643,0.609582759994225,0.6224179195332886,0.6371733853881163,0.6420357450404794,0.5751879313668158,0.48214215850279407,0.4760481988843295,0.5255138005149358,0.574168147393523,0.6007694393313305,0.5646687466150007,0.617441608847193,0.5647917587059159,0.4157428783380439,0.26540506500787586,0.1242653880390443,0.0017319090043601548,0.0,0.13747165113897664,0.29119193241478225,0.4501934194453434,0.6022252399092429,0.7161185426773211,0.7208067106732865,0.6359920261393532,0.5680442945073447,0.5117532074319215,0.4467127007211702,0.3830247059766614,0.31170092604042,0.24668382889643858,0.2249342130744698,0.27412954140164425,MI
0.8899922082619847,0.9190840650460326,0.9389167951831607,0.9319864804872726,0.8742975110020488,0.7815004836188091,0.6811252179451588,0.5805853771642082,0.4784692849772869,0.42639907747778527,0.5132287714616794,0.6225349560727802,0.728271196956108,0.8265279420684475,0.9246540134943777,0.9987055264902713,0.9999999999999998,0.9743684010964861,0.9449954505342768,0.9236577907416017,0.9477114628905452,0.9574795490810326,0.9575762088445561,0.9569736984266768,0.9467089086752087,0.9422424424859834,0.9422098182456942,0.9421790053029129,0.9379432553102987,0.9275292146340377,0.9263197138747021,0.9204467282045872,0.9262007031259276,0.9268471593268901,0.9288238471277663,0.939259726871738,0.9145448935550726,0.8554513055391164,0.789473145445373,0.7139110379350335,0.6386550757732044,0.5754990034811394,0.5932368876171947,0.6491293896354395,0.7091366433112125,0.7641513400565974,0.8153153530157196,0.8549687069197918,0.8795193005359538,0.8960013371640609,0.9112962103002278,0.890629070569694,0.8085313593133303,0.712608168103378,0.6116082865513179,0.543728561174196,0.6008489873417655,0.707526463490417,0.8058958298176073,0.910656975156457,0.987812036454361,0.9810296129024765,0.952722589723366,0.9255396951405339,0.9104151691827911,0.9345722099461355,0.9368291359092586,0.9272761395395832,0.9268494547193582,0.9290859663506164,0.9361908079063876,0.9331952802028616,0.9386223087391488,0.9322216220948312,0.9415785253120605,0.9422096670242086,0.9425116718542059,0.9504021250965973,0.94574072593576,0.9419578308431056,0.9276721579191951,0.8761133915951167,0.8110693846787524,0.7345517758291693,0.6578343102231223,0.5843344392332657,0.5544923542750941,0.5928835403304153,0.6572985130277849,0.7076380850353152,0.7578483281563699,0.7948851781346404,0.8307257246204556,0.8506201645212255,0.8591035030710088,0.8265996416459556,0.7487505692515131,0.6524643347677765,0.5544297062744856,0.4516883946992516,0.39279572389056727,0.4682686220548786,0.5773980984200173,0.6830231561409874,0.7767078540056878,0.8488767360706835,0.8880507980549861,0.8661216832028062,0.832397458735157,0.797818430020208,0.7853034287688268,0.7939829337179212,0.7600731424473703,0.6917105085535591,0.5869981697957869,0.4894405426945927,0.46414052517108817,0.5169433675332782,0.6225447391309851,0.7132819664057932,0.6987707089097948,0.6044140482124962,0.5023033637725913,0.46254026162288997,0.4918098889612874,0.589705009418301,0.6944901234849084,0.7588544237834733,0.7966750303312027,0.820876519613478,0.7673232670135952,0.6709872181598924,0.5686631486909783,0.46600568694999756,0.3649324589576677,0.2564622376096577,0.15752099075913661,0.0555704240361361,0.0,0.06338902374968591,0.16101507213087807,0.2657631521937802,0.3658859080239021,0.46946727955445433,0.5708379381211828,0.6713205391523263,0.7621282984760105,0.8089386738110125,0.7983140814937,0.7663826063203618,0.7319140310977017,0.6834595916674975,0.6349696642256013,0.5743694671721233,0.5188894757769258,0.49502212417474856,0.5304349277016212,0.593615799396723,0.6686224339100704,0.744963155300921,0.81999682474841,0.8803335374828054,0.9040254087259647,0.905329086602767,0.9053301559890052,0.9053300679268517,0.9047270582729967,0.8945222169458764,0.891629584337301,0.8961098422377278,0.8806577527566344,0.8888848748283646,0.8899628144749643,0.8899636300487181,0.8899584155697318,0.8874873184169865,0.8636659992858335,0.8545761599705213,0.8858907891265912,0.9149108003447146,0.9170588739388024,0.8424228888014136,0.7431639381591999,0.6421849506293118,0.5333448710325566,0.43291635523328,0.32942701257920093,0.22007636818145127,0.11316691092884312,0.05822316655887683,0.1167863222776897,0.21870440849729933,0.3167245660955196,0.4244940472110794,0.5257920619933201,0.6277718175806279,0.7268197542033683,0.8200244348803933,0.8571489497922975,0.8435457194998273,0.8190964396563414,0.7800529532412457,0.7291868240242196,0.6744725131183225,0.6155643307388694,0.5567781114483743,0.5249301101543311,0.5492968006982564,0.6143319657304083,0.6888026944921062,0.7639872738291211,0.83423769992872,0.8876429506515235,0.8919201823408576,0.8899692222251583,0.8893812654639228,0.8792547517533189,0.8788621855396415,0.8885220548216377,0.8822314668693123,0.8992214031814403,0.8983505975762791,0.9026012276734254,0.9053221154030477,0.9068457097342832,0.9181132629710487,0.9134236146194581,0.9117414938851904,0.9066670281702869,0.8672416913184156,0.8643380412415389,0.9038934234583069,0.932548139308863,0.937511485745343,0.8633901046616621,0.7607384542054156,0.6607248743131631,0.5568786917196229,0.4504084590752966,0.35225992194916667,0.2460271294726084,0.14900845056112577,0.08040215907852954,0.12889870301086837,0.21017635628980247,0.3036502282186784,0.4017841159678135,0.5079404860960508,0.6058165275198977,0.7079240771549464,0.8051302759060424,0.8834966483407241,0.890921854519821,0.8623972225429755,0.8321142820531533,MI
0.4169803766015976,0.38548829406593255,0.42667246653168434,0.49572750952114086,0.5688653352225237,0.6298821824768921,0.6946299909323197,0.743902557622468,0.8259572863488702,0.920168613478761,0.8857532290449988,0.7923855413390455,0.6688136955252548,0.5313132132170115,0.3748002490132194,0.33076981510822234,0.4646652442111283,0.6152583056607805,0.7424621095087027,0.855486458466411,0.8323502684993049,0.7545637211076213,0.7559507278164035,0.703816120619503,0.63357418817623,0.6476856514257876,0.7263212022038537,0.800152103744042,0.7866795709941594,0.7516422660828392,0.7515998149051142,0.764538945549655,0.773821279742553,0.7745839474320202,0.7825456623745146,0.7627209828880157,0.708046688054687,0.6574618714849643,0.5776714841142172,0.5359766279148235,0.5641624489056878,0.6199842494056838,0.6411104831053662,0.693903792814011,0.7498929220233257,0.7982006026208599,0.8647631916656855,0.9241190193714517,0.8562903028045974,0.7628912823900191,0.6447987304328975,0.4835185348030433,0.3301786062652958,0.2561090652733027,0.39802842029561214,0.5588736297532626,0.7065433226584417,0.8398905307672622,0.9685832533701215,1.0000000000000004,0.962950531142464,0.9189355039402147,0.8203957922686365,0.7413982886829413,0.6983789356491052,0.7299555306520626,0.7966957313459537,0.8091521559602639,0.7853539435349002,0.786376069622611,0.8382070667199115,0.8454257905785796,0.8333212624915043,0.7546743711900299,0.6842638818801219,0.6330233417895106,0.5864237085370649,0.5497945850639288,0.5676161809686735,0.6370063792334935,0.7000967231235333,0.7619717551837506,0.8008484524434221,0.8131028242256497,0.8106864753946659,0.8637147821240716,0.9192080655659525,0.8296178179693761,0.7203834661097184,0.6115871490594817,0.4702985239659516,0.32288340584334563,0.29662265846423796,0.43560034544178006,0.5866578138428111,0.7222103233060984,0.847749277112134,0.9240249718067131,0.9148134705289608,0.9370376752269922,0.8682758468652048,0.7798035934945573,0.7224865278107049,0.7500151150620531,0.82962587510448,0.8650331810932594,0.8545690777014294,0.8264469574533524,0.791299693379306,0.7611512777742164,0.7397914786670658,0.745878210479257,0.7289369913534558,0.6707837050260905,0.6038650971024926,0.5293676812703532,0.47102388847251797,0.5061314106747647,0.5858023537445685,0.6460710205884799,0.6672008908602218,0.5833519935829341,0.5026499132022537,0.39008266900814714,0.22057500074985503,0.059846502531393675,0.015202077715079199,0.11542325585369051,0.2860371601374112,0.4173546361528726,0.37661676655909604,0.21849854806881952,0.06033664984596987,0.007523520123784877,0.0549990289028055,0.20962037680775403,0.312923862037505,0.31037118535612596,0.37019751660061884,0.44815426325570185,0.5063763195515363,0.5708215515761483,0.5898920805267376,0.5906590479172649,0.5959618832038847,0.6408977191276501,0.6734016594469519,0.7119960677088062,0.7271673169360162,0.6696272479909982,0.5981385725156261,0.5612938828619369,0.5882726212340583,0.6857242432174684,0.7704091453129194,0.7837613618502544,0.7549345924409585,0.6680943349493362,0.5255196225471122,0.3704756567730847,0.2201501216487416,0.08219793060532599,0.023045870048894468,0.12069976053688602,0.28957058283691994,0.45876034841569835,0.5881964952126171,0.67500629760637,0.6957803416999035,0.6571849451295679,0.6672614842912519,0.6374431721592768,0.5881405468844059,0.5220459750097652,0.4463516810689412,0.38773466563640735,0.39541537204651167,0.4313447437788973,0.4702073919734553,0.5231498990750638,0.5800087338588109,0.6580157475258201,0.7008616113418262,0.6761417255835158,0.6336777882599578,0.6406889209597968,0.6476357157994843,0.5984823053313586,0.5315005157299537,0.5519110790621817,0.6151912526650709,0.71009837827259,0.7870179121006529,0.825989488572803,0.7869608293529216,0.6612108155129817,0.5097299713046595,0.35460310603581346,0.20402934173210197,0.06950321522302083,0.04022047873987633,0.16175167216605146,0.3203590858411127,0.4785003358930138,0.6325055162068209,0.7317089198597952,0.7282698177852382,0.6623191969785887,0.6148037157105999,0.5532328375410587,0.4903351649413348,0.46233452990089097,0.4129561799664745,0.3725002837717799,0.40404287519734705,0.4807297305658973,0.5486502001217723,0.5727672476368251,0.6212473612235967,0.6372017465308519,0.6226137927928481,0.5950873468232643,0.609582759994225,0.6224179195332886,0.6371733853881163,0.6420357450404794,0.5751879313668158,0.48214215850279407,0.4760481988843295,0.5255138005149358,0.574168147393523,0.6007694393313305,0.5646687466150007,0.617441608847193,0.5647917587059159,0.4157428783380439,0.26540506500787586,0.1242653880390443,0.0017319090043601548,0.0,0.13747165113897664,0.29119193241478225,0.4501934194453434,0.6022252399092429,0.7161185426773211,0.7208067106732865,0.6359920261393532,0.5680442945073447,0.5117532074319215,0.4467127007211702,0.3830247059766614,0.31170092604042,0.24668382889643858,0.2249342130744698,0.27412954140164425,MI
0.7461387707627183,0.7198264838693906,0.649470607068841,0.5373430524662202,0.4159582598206222,0.35706745712522103,0.4551342777577201,0.5591573141680648,0.5973117533769257,0.5927104461015009,0.5514065716050913,0.4593787292262892,0.34934507675381266,0.23466479939754015,0.22527652571327694,0.3339746646205701,0.4531832847965198,0.5786614560179895,0.6824340657699537,0.7507402230452387,0.7907218147702673,0.820465172078034,0.8283628149703683,0.9072644693818686,0.8624010369421171,0.7250031570342004,0.5899331997841895,0.5873044775807315,0.706508357019084,0.7940304897600656,0.7957596914160878,0.7732195525602554,0.7103744720449008,0.6059121237353766,0.4842642661285743,0.39844275494198245,0.46429935511055564,0.5743435089264959,0.63188811098671,0.6173774708159376,0.5768277002125153,0.48740692098622596,0.38311625943936933,0.26782055059957877,0.1747559027806207,0.21814221607309836,0.33620286238971886,0.45607967232005464,0.5693036831453173,0.6595478400753652,0.71585213281474,0.7437253008019402,0.7546279125848749,0.8492263190566036,0.8905872486797479,0.782315633661467,0.6298728371448714,0.5044296336038672,0.5536528000484515,0.6627561117240748,0.6869736370867225,0.6624577392273054,0.6128159814118823,0.5311076066705294,0.4159626914530117,0.3265522175422082,0.3963663754222675,0.5054138531220405,0.5776169201537065,0.5957707124623073,0.5597168108035331,0.47396360897129464,0.3597936964363244,0.24572226962956556,0.21535468782718237,0.32383982940545897,0.4527005279807783,0.5685043059309938,0.6755221336216963,0.7680183441760082,0.8239034955996485,0.8647008302595371,0.859578328990398,0.9449976544801957,1.0,0.8976092906629627,0.7548224310221965,0.6303524630808242,0.6784749618872836,0.7733362423774013,0.7636540392396922,0.7270891664648986,0.6710209181021187,0.5810179662073978,0.47048384991409975,0.3976763461935291,0.4717140765310637,0.5645495554862108,0.596593294327938,0.5777247090487903,0.5182866390888949,0.4331843373881945,0.3133071297340626,0.21354095584561783,0.2597021161481168,0.3747798550848498,0.5027137258830483,0.6192845860835061,0.7195691096376686,0.7948669010286884,0.8279778684920971,0.8382010876758006,0.8576341221640527,0.9108587801953614,0.8173731236643533,0.677869649606119,0.5538472446955645,0.5908666314655027,0.7166451320118159,0.7599521348312166,0.668981338651117,0.5276193156823483,0.3979236929351031,0.2554636372273773,0.08887714665972002,0.0,0.05122329642038359,0.1970654905962621,0.3008233345992273,0.3013898747326702,0.14288293412415154,0.014204714520187345,0.01013326199031006,0.13172938486592045,0.2963810114463068,0.3884513239243663,0.4924313051690521,0.6329539052256932,0.7398596652095901,0.7394988589410545,0.7644997227402088,0.7538514312625124,0.6846648291531876,0.5838036525721031,0.47106647284869263,0.34986825924517273,0.22384713165008963,0.13587629159122905,0.16568709091817269,0.282077961241217,0.39107419991371506,0.47529176548355734,0.5226445610902388,0.5190150615522042,0.4351248415162061,0.3265902648038428,0.29430712521690605,0.3713554510003849,0.4867883183194399,0.5910263122395958,0.6598219597332213,0.6909704884586629,0.6416321133916667,0.5142034566254954,0.3753345822842049,0.3581554348104228,0.4878312086207792,0.6225966888180872,0.7475986728089437,0.8221310135928936,0.7758123530178596,0.7886672453040506,0.751776719738781,0.6939248231951636,0.5879374069100192,0.47231528359269825,0.353495542699958,0.23525450754823352,0.1311350051232374,0.13231154529311606,0.23349554309009424,0.3569266947300713,0.45795180262119395,0.5179345659645529,0.5094159373131215,0.4208686755850586,0.3017787307418107,0.2246743432371816,0.26704096205886874,0.37603480709188153,0.48373711868668456,0.5711475511292021,0.6081835175497465,0.5675359425837918,0.44865218096834925,0.31555969466290845,0.25998727675489786,0.3787432631056675,0.527625999540545,0.6644311269301744,0.6890358609486662,0.6705729335923358,0.67478678174556,0.6364316976176694,0.5611947109231257,0.45559718032984664,0.3289433253017897,0.20846734611159823,0.10132413835868137,0.06010666035643597,0.14293149258341398,0.257247254729037,0.37408380294000576,0.4805308302257636,0.5419555824920499,0.5530716250003156,0.48710641404132815,0.3778129922908757,0.3207869390995812,0.38879055044340705,0.5163984778454207,0.6242616916555859,0.6972054404865466,0.7240455152584215,0.668493288319167,0.5399009541128836,0.40788031916749246,0.3153069963461599,0.3914764458283537,0.5391728664822,0.6866128363743265,0.7591423937143564,0.7149859715757358,0.7218300224392564,0.7008610016049959,0.6405664070053927,0.5443216951882652,0.4273995787027678,0.298140869034476,0.1804966074629375,0.11143425988750888,0.17145138814838257,0.28204174300447127,0.3936006776820089,0.4842570883656463,0.5274257190377698,0.5235641489322846,0.4485823648668932,0.3327888009876845,0.2635100642361916,0.31933534341958136,0.44018536538587894,0.5685003112521132,0.6505212212717701,0.679870579663417,MI
0.7960765263863778,0.7232324567075334,0.6220530271586528,0.5291082953649031,0.4419606016211297,0.40145215242633325,0.4651383211375504,0.5442556409500772,0.6312103375146991,0.7217656604379559,0.7950521602309362,0.860264933655345,0.9226095843729061,0.9714213347328942,0.9907963008959308,0.9947438114611007,0.9991684447048672,0.9790692085830406,0.9197731190809195,0.8333747371664875,0.7212849443318854,0.6137999317137632,0.4878179448391058,0.36719197344545984,0.37036101426511303,0.5016756013676096,0.6325737641889191,0.7642153882164409,0.8793253504920733,0.9834450004048141,1.0,0.9733381986689715,0.9692156655521593,0.9509916717614608,0.9296752685283294,0.8300055280488161,0.8039476155273411,0.8620830997307039,0.9111963872245359,0.9187506454417864,0.9198844413043235,0.9339351973618695,0.9324637820243171,0.9292935685839372,0.9458811698707357,0.9458141664278652,0.9075043425597014,0.912739649793052,0.9165933320374702,0.8992039803188749,0.8939985108370885,0.8820242988995268,0.8826976377245193,0.8470730057913523,0.771332869702992,0.6779200904614,0.5891220671628088,0.49261691526289075,0.40536342317380214,0.39304577673931274,0.4643190132889363,0.5401332354939226,0.6375715683976946,0.7325082823354556,0.8013246658648172,0.8655418581484873,0.9227282071958531,0.9526713053883045,0.9708720974380065,0.9840352358639426,0.9670109309719201,0.9334917087319705,0.8415553610083122,0.7342442871876056,0.63965111534075,0.5307707976738083,0.41567724020281904,0.45684474081962145,0.5911494149731387,0.7184105687734372,0.8410158644692474,0.9505556276970788,0.981227520327967,0.9687985466488351,0.9575639845005237,0.9267136807501517,0.8600565133485878,0.8250642784727615,0.8696853051901292,0.9121467007054687,0.9187631600788886,0.9227948909273067,0.9331923006356297,0.9504678491222407,0.9449256167638302,0.9289752096614547,0.9081248472546983,0.916282879654029,0.9033231142709375,0.9146783676130967,0.9016377547381484,0.8956786546994389,0.895628351274866,0.8905853065057587,0.8476960290646054,0.782525093452203,0.6963419246606741,0.6089527151877472,0.5034171402685703,0.4109996907361295,0.3842262580617515,0.44956956187496155,0.5408654245164786,0.6239889742911631,0.7141387258003231,0.7882231471098491,0.860429600198708,0.8981588911515939,0.9416487602744819,0.9802784397557502,0.988087640737032,0.9818254663360397,0.9525449811250515,0.8884828284877107,0.832249944726279,0.8558536015446196,0.8705950806337723,0.8708505765215682,0.844658489430032,0.8085229298957044,0.7581349794879619,0.6905675169046175,0.6011550853158769,0.5141500831127432,0.4304419888445583,0.3475312933044181,0.2741900575818277,0.26012451493758837,0.3135028088551115,0.4228950248109018,0.5151623374197483,0.6100757427164258,0.693692529894403,0.7611474308666386,0.790763399510257,0.7803549060073638,0.7910724202450123,0.7938655276927289,0.7976281357027615,0.8040590966506,0.8109181226931508,0.8113014430359633,0.8259247407729857,0.8292646592735995,0.8362387965777192,0.8315740974315977,0.8199515277091471,0.8090786118624815,0.821092764022211,0.8089138836144327,0.7545966248603895,0.7078812712394673,0.7471897784570967,0.82316386421512,0.8490296164245001,0.8577874883660925,0.8489890281939059,0.7982129697470719,0.6734152263191917,0.5283500320523666,0.38418987274472327,0.2554783380176118,0.11873276733396132,0.014866093529731117,0.024540988983630996,0.1409507327726156,0.26990100521522464,0.4080460199866143,0.53188885781538,0.6374064733669744,0.7529318757517585,0.8281162406688676,0.8623193796702067,0.861019201842232,0.8420642041085902,0.8286716464330723,0.7829881497451465,0.7212009015698158,0.658699679222023,0.5735648900403976,0.4700959417949351,0.39191109371287025,0.31306787486714116,0.2589970083267361,0.2779282319533478,0.3620449239278227,0.46100208464280046,0.5560577011397823,0.6505994414381053,0.7297896657866381,0.7692346886160553,0.7829571354142879,0.7823244020897886,0.7931212778855157,0.8072524012806936,0.8102227921499154,0.8171894237973616,0.8287730394578876,0.8190292261709233,0.8296145985406373,0.8201264369863019,0.8090975400718547,0.8154250211068192,0.8143883037004187,0.8023949917597011,0.7598393269389123,0.7004628894554825,0.702754085062554,0.7758131464209059,0.8323673517302081,0.8622485535770945,0.8766012828474303,0.8466016773793434,0.719858776736177,0.5906544048446554,0.455811323483847,0.3225929655692812,0.18559049199081867,0.05932119906307687,0.0,0.08175403747157528,0.21540508568725203,0.34327722348992173,0.47117611860766484,0.6014973416436882,0.6956873445951777,0.8039273810857837,0.8611224206906418,0.878389598489635,0.8719291734038501,0.860742152725738,0.8456431547491836,0.7986852353962655,0.731611071974513,0.6615442218815559,0.5765950403238702,0.4865940430356459,0.40722349152378134,0.32657090860578597,0.27044432145576414,0.2989231268843855,0.3850947510649516,0.47443489543978634,0.581250208923747,0.6732400677934707,MI
0.6995477730089035,0.711427598385816,0.7633360950179182,0.7981881832259048,0.8156872730140527,0.8324929785181485,0.8605256661129772,0.8553915104471441,0.8750557526319356,0.9096330795925467,0.9610407193142496,1.0,0.9947118714707162,0.9179354296281894,0.8184495069943951,0.7147107105391601,0.5976835642836398,0.48776336690420674,0.3776895441013477,0.2623165930589182,0.16284540926349456,0.0924949288654977,0.10355377514688424,0.15960957030962586,0.21990671092177339,0.2773779523914399,0.32921358879849727,0.3776396191310578,0.4023141213847228,0.4361950641643162,0.4806835359814894,0.5313275268161077,0.5727592695291035,0.5266109320238495,0.45776869411184595,0.5270441574325297,0.6188692723699969,0.6642259247557205,0.6472708583935334,0.6510088322045302,0.651773549318801,0.6113969025119665,0.5614939213878003,0.5356840809404075,0.5728181973541284,0.6322223894773393,0.6701366102426114,0.6765344311607087,0.6765677843151723,0.6729404328253015,0.6641035000956386,0.6543867773869048,0.6228734723550424,0.5850606179218745,0.5242975763229514,0.4494974137730603,0.3675504979880784,0.29113716758794617,0.23704942137124885,0.27606841802893234,0.3375935119430551,0.4082754415810066,0.47658178698144393,0.5377959906229721,0.593745772955613,0.6484555858922265,0.6921062855081983,0.7457540194276189,0.7885039725317773,0.8273523216997836,0.8870681468369819,0.8580263091083689,0.7795715275879314,0.7335041411716401,0.8141091374125424,0.9091064229433972,0.9501391034596458,0.9166946328604646,0.8963877127330724,0.8753132169284754,0.8444016629083486,0.7919011299206238,0.7426976291628118,0.7567146453099998,0.8040951082157166,0.8394080307506298,0.836448714151488,0.8196547322524923,0.7756945402860325,0.7531161256034276,0.7410721853189672,0.7150919584935074,0.6957190993273517,0.6575514211533888,0.5929533583802442,0.5106043795158048,0.4250702495556604,0.3484890346139595,0.2750529696646278,0.27422631747988335,0.3281014709400436,0.38558334482926826,0.4488674894638165,0.5000528229293204,0.5517787658799711,0.5728708630745221,0.5888350110250107,0.6231954521431242,0.6710785874048475,0.6993456818462995,0.6353195680119659,0.5776743408823535,0.641172981267284,0.7410592262161595,0.8193175123014917,0.8230489772784724,0.8080004106152772,0.7932505698357675,0.7571969915597276,0.7037311303015419,0.658424031332173,0.649604538434525,0.6963552880667296,0.7368259696717159,0.7376740657998644,0.718523695730982,0.6752946265700746,0.6568084195157278,0.6140992177011042,0.5798601160559582,0.5860193456861422,0.6253936648513112,0.6748304032570056,0.7194788749259571,0.7264132243193893,0.7443032238189806,0.6972619088595127,0.5966844518678966,0.4945624122254473,0.4028640642567769,0.3900729461248549,0.47168007549372604,0.5696210682446665,0.5822592625166916,0.5440192877873433,0.509985566144358,0.4884018313954117,0.4669144102932088,0.42327475630453515,0.3676314316485718,0.3040099032115373,0.24412715731580326,0.19499325294100922,0.1766592571776271,0.2273662741205209,0.3023892531217105,0.3832393823227709,0.47645849304592414,0.5502847441996996,0.5995785330680228,0.629805593429706,0.649541898985019,0.6634072454516788,0.6819132273233648,0.7310831819246291,0.7534199532483856,0.7566797725073804,0.7311631702188004,0.6822691806406098,0.6539506340654007,0.6775405234155825,0.7252274971731052,0.7780250934708,0.8154175590491937,0.8369203691986633,0.8606982815456248,0.8125285369545856,0.714125534846707,0.6032832131012302,0.5666720456684011,0.6378813231530871,0.7374868728238426,0.7725051319869989,0.7244783343766743,0.6943188175870758,0.6487831746320989,0.5987626961498069,0.5529051329924402,0.490011323116037,0.4263777170568055,0.3609696952106818,0.29657844000368927,0.23026782890026531,0.17291481529015762,0.15368306175018498,0.2047847505695377,0.2773836199148185,0.35194459542247136,0.43591968152016625,0.5039044000932034,0.5263112038148647,0.5585583957555849,0.5681866115433998,0.5772796539958245,0.5917073917623519,0.5936235079613854,0.584111033034433,0.5452501445506273,0.4878905000491556,0.4522394574349926,0.4557846933316445,0.5043025318601568,0.5548890617822666,0.5797575630365106,0.5660263601692157,0.5703496638552985,0.5612201103830818,0.46681018997573753,0.36327962562300087,0.2772014428441798,0.29047122630506195,0.38317412227976133,0.4673197875352333,0.4568828617729621,0.4123142594669176,0.3632383928797336,0.3309576019718272,0.3007837105724782,0.25675897779273393,0.20834672349244876,0.14630237335085727,0.08151755752055356,0.02862576211457757,0.0,0.029950393939441433,0.10429488254838182,0.19649875765924651,0.308887280912987,0.4280627118275686,0.5472010639395397,0.6588599761073608,0.7667476797868145,0.8647089096273475,0.9007765222490809,0.8604319243013143,0.8219773996882411,0.7870712854172184,0.7673994552615766,0.7614079928375106,0.7444402316504934,0.7299230981673088,0.72568116273776,0.6807271664426793,0.6335916651592024,0.6158419480534452,MI
0.8123624661147542,0.9051442476465104,0.9797093157838312,0.9147084541532924,0.8071623921069868,0.7316743243759332,0.8142132893540079,0.9326549578310299,0.9822583221018393,0.9703444487823236,0.9536559336539363,0.905502114492613,0.840385856161523,0.8472049907781689,0.8956720413349069,0.9455977884092639,0.9375665820094303,0.9301017313316717,0.9164975667445314,0.9006779696894336,0.8708054529119096,0.8208877595535391,0.7569512160559158,0.6757448814398614,0.5861152702412111,0.49015490624818936,0.3987061791311901,0.3269062714829989,0.3539274562457675,0.43875941170232213,0.5307168624343395,0.6230252511497278,0.700203045267465,0.7758609323280425,0.8845477235084189,0.9941991166333115,1.0,0.9039795625729536,0.7853717249142815,0.6535967494002533,0.6267067280798906,0.747417925632309,0.8697351615160418,0.9449212924496764,0.956979336933848,0.9495746055058514,0.9170474630609045,0.8464368591455425,0.8103482662775812,0.8549709315270642,0.9265639430003572,0.9361284050294079,0.9148233016142093,0.8960638310743789,0.8528138013053916,0.7769748279792084,0.6952018062587926,0.6122254544638275,0.5148555419176724,0.42675112237348944,0.3835110439655409,0.4401855912627535,0.5309950664774754,0.6184167714144033,0.7014702334306726,0.7766900632109754,0.871220906947562,0.9729724020964592,0.9846797711314657,0.8884653152931996,0.7590514394332062,0.6234644404974823,0.5390232493006173,0.6282443958204511,0.7601659081773464,0.878826023827143,0.9381033628049602,0.9398848795451507,0.9139497126796803,0.8482982726152306,0.7825271974491312,0.7937622675446669,0.8624848424902276,0.8932815193275765,0.8795174212088464,0.8640792256465919,0.841899746943811,0.8036827280181762,0.7573960924123897,0.6841781716991298,0.5954150643078289,0.5097785610400809,0.41882791873979075,0.3203542335471883,0.2776165119352232,0.3433956163444831,0.42990430682883574,0.5166659506210767,0.6049482440103553,0.6810356543032197,0.7656909946799351,0.8719855291002956,0.9179118529002013,0.8439567750323422,0.7329179834869008,0.6095816496692659,0.5957112944472045,0.7211658220551906,0.8451882160134625,0.926285462441971,0.934358785750637,0.909234810389973,0.8660481359467069,0.796328283399959,0.7810013174307406,0.7876279671419373,0.7204545994630225,0.7088912280285546,0.7796075270002216,0.8357965549486988,0.8595733900605986,0.8321939925496298,0.7511561070805599,0.6207410674456035,0.4876636390759259,0.3477147289845477,0.2133607479140105,0.08044741577632131,0.06431041639205315,0.18388979958699814,0.3201805084775642,0.45538203522218934,0.5883598766661993,0.7163091381723494,0.8075254595193604,0.7535077108017671,0.6598384037286262,0.5876003740494165,0.4999372966940885,0.40811655450255024,0.32458993448217655,0.24413207010310511,0.20950422297823046,0.25971663460481764,0.35278857365929595,0.4429098502315929,0.5322201342204789,0.623928055590826,0.6933469476497627,0.7439146958037872,0.7867432391554701,0.799279991522504,0.8070838182062925,0.8241055883659625,0.7656915139529907,0.7114888307063723,0.7042433312000358,0.764370105222226,0.8392201807329722,0.8681654622132511,0.8681966377576682,0.8275775944408714,0.7058558226159497,0.5715235090427635,0.4334808810557158,0.29491615509340674,0.15684969664273574,0.025482194682153736,0.0,0.1254797002059389,0.2698993073061824,0.4044652763196357,0.546778394982582,0.6788144464388948,0.8042019577244148,0.8792877483897277,0.8148387672000554,0.7239057959189434,0.6464197006886159,0.562857178893962,0.4744625972057097,0.3817484188159055,0.32212222668157375,0.3258275818942362,0.4009040681442033,0.4971112524335397,0.5877273789645932,0.6686153592717514,0.7559600553063235,0.8215941466314294,0.845750444057285,0.8659330893383848,0.868878968175546,0.8012407599891085,0.7467269243125441,0.7426694286202453,0.8159301317182881,0.8797215704074097,0.8987319583561115,0.8746184373102066,0.7699275728714574,0.6396977107320967,0.5062250319623649,0.3666554645943787,0.2311439552395349,0.12372366909436838,0.17621148602033276,0.31023715748928904,0.44464916099938945,0.5813132103540637,0.712784913014203,0.8363449696833993,0.8762258278564476,0.7844977031648224,0.6884657345557215,0.6190382306096587,0.5348276576815594,0.4376057719129758,0.3499864094280598,0.27686545178693756,0.26672761119979205,0.33197824556414446,0.43274697992377886,0.5262647701320136,0.617333213186094,0.7035173887812967,0.7621408717091391,0.8055375541992631,0.8405694546081692,0.8468864776680207,0.8466814196868726,0.8617567531244807,0.8680412794651313,0.8066732520882143,0.7630412329830154,0.7407811447899282,0.7755848762007349,0.8514916369828405,0.9008863268546481,0.8991877095601613,0.844839957034857,0.720288584841827,0.5841110518398316,0.4483304647420998,0.3255620585600365,0.20702486980446722,0.13885012510617134,0.23452397632196043,0.3679256505777655,0.5077855192200826,0.6392858468188471,0.760584975456136,0.8540239371544329,0.8154169750048279,0.7336231222345613,MI
0.7960765263863778,0.7232324567075334,0.6220530271586528,0.5291082953649031,0.4419606016211297,0.40145215242633325,0.4651383211375504,0.5442556409500772,0.6312103375146991,0.7217656604379559,0.7950521602309362,0.860264933655345,0.9226095843729061,0.9714213347328942,0.9907963008959308,0.9947438114611007,0.9991684447048672,0.9790692085830406,0.9197731190809195,0.8333747371664875,0.7212849443318854,0.6137999317137632,0.4878179448391058,0.36719197344545984,0.37036101426511303,0.5016756013676096,0.6325737641889191,0.7642153882164409,0.8793253504920733,0.9834450004048141,1.0,0.9733381986689715,0.9692156655521593,0.9509916717614608,0.9296752685283294,0.8300055280488161,0.8039476155273411,0.8620830997307039,0.9111963872245359,0.9187506454417864,0.9198844413043235,0.9339351973618695,0.9324637820243171,0.9292935685839372,0.9458811698707357,0.9458141664278652,0.9075043425597014,0.912739649793052,0.9165933320374702,0.8992039803188749,0.8939985108370885,0.8820242988995268,0.8826976377245193,0.8470730057913523,0.771332869702992,0.6779200904614,0.5891220671628088,0.49261691526289075,0.40536342317380214,0.39304577673931274,0.4643190132889363,0.5401332354939226,0.6375715683976946,0.7325082823354556,0.8013246658648172,0.8655418581484873,0.9227282071958531,0.9526713053883045,0.9708720974380065,0.9840352358639426,0.9670109309719201,0.9334917087319705,0.8415553610083122,0.7342442871876056,0.63965111534075,0.5307707976738083,0.41567724020281904,0.45684474081962145,0.5911494149731387,0.7184105687734372,0.8410158644692474,0.9505556276970788,0.981227520327967,0.9687985466488351,0.9575639845005237,0.9267136807501517,0.8600565133485878,0.8250642784727615,0.8696853051901292,0.9121467007054687,0.9187631600788886,0.9227948909273067,0.9331923006356297,0.9504678491222407,0.9449256167638302,0.9289752096614547,0.9081248472546983,0.916282879654029,0.9033231142709375,0.9146783676130967,0.9016377547381484,0.8956786546994389,0.895628351274866,0.8905853065057587,0.8476960290646054,0.782525093452203,0.6963419246606741,0.6089527151877472,0.5034171402685703,0.4109996907361295,0.3842262580617515,0.44956956187496155,0.5408654245164786,0.6239889742911631,0.7141387258003231,0.7882231471098491,0.860429600198708,0.8981588911515939,0.9416487602744819,0.9802784397557502,0.988087640737032,0.9818254663360397,0.9525449811250515,0.8884828284877107,0.832249944726279,0.8558536015446196,0.8705950806337723,0.8708505765215682,0.844658489430032,0.8085229298957044,0.7581349794879619,0.6905675169046175,0.6011550853158769,0.5141500831127432,0.4304419888445583,0.3475312933044181,0.2741900575818277,0.26012451493758837,0.3135028088551115,0.4228950248109018,0.5151623374197483,0.6100757427164258,0.693692529894403,0.7611474308666386,0.790763399510257,0.7803549060073638,0.7910724202450123,0.7938655276927289,0.7976281357027615,0.8040590966506,0.8109181226931508,0.8113014430359633,0.8259247407729857,0.8292646592735995,0.8362387965777192,0.8315740974315977,0.8199515277091471,0.8090786118624815,0.821092764022211,0.8089138836144327,0.7545966248603895,0.7078812712394673,0.7471897784570967,0.82316386421512,0.8490296164245001,0.8577874883660925,0.8489890281939059,0.7982129697470719,0.6734152263191917,0.5283500320523666,0.38418987274472327,0.2554783380176118,0.11873276733396132,0.014866093529731117,0.024540988983630996,0.1409507327726156,0.26990100521522464,0.4080460199866143,0.53188885781538,0.6374064733669744,0.7529318757517585,0.8281162406688676,0.8623193796702067,0.861019201842232,0.8420642041085902,0.8286716464330723,0.7829881497451465,0.7212009015698158,0.658699679222023,0.5735648900403976,0.4700959417949351,0.39191109371287025,0.31306787486714116,0.2589970083267361,0.2779282319533478,0.3620449239278227,0.46100208464280046,0.5560577011397823,0.6505994414381053,0.7297896657866381,0.7692346886160553,0.7829571354142879,0.7823244020897886,0.7931212778855157,0.8072524012806936,0.8102227921499154,0.8171894237973616,0.8287730394578876,0.8190292261709233,0.8296145985406373,0.8201264369863019,0.8090975400718547,0.8154250211068192,0.8143883037004187,0.8023949917597011,0.7598393269389123,0.7004628894554825,0.702754085062554,0.7758131464209059,0.8323673517302081,0.8622485535770945,0.8766012828474303,0.8466016773793434,0.719858776736177,0.5906544048446554,0.455811323483847,0.3225929655692812,0.18559049199081867,0.05932119906307687,0.0,0.08175403747157528,0.21540508568725203,0.34327722348992173,0.47117611860766484,0.6014973416436882,0.6956873445951777,0.8039273810857837,0.8611224206906418,0.878389598489635,0.8719291734038501,0.860742152725738,0.8456431547491836,0.7986852353962655,0.731611071974513,0.6615442218815559,0.5765950403238702,0.4865940430356459,0.40722349152378134,0.32657090860578597,0.27044432145576414,0.2989231268843855,0.3850947510649516,0.47443489543978634,0.581250208923747,0.6732400677934707,MI
0.5436669058077954,0.6209365633060049,0.6556845963427014,0.6053900091093176,0.5246216792275153,0.4359267406727465,0.4008219826878281,0.47680620841613885,0.5392469272394864,0.6080992916192742,0.6802405844811754,0.7544635433785665,0.8326518983725619,0.8555526506559321,0.7697632699745691,0.6690961219213647,0.5506851380523679,0.430462781772881,0.4310147746284083,0.5551674174350532,0.6851971596910476,0.814868412392483,0.941549121758448,1.0,0.9261145130634922,0.8563091120975814,0.7740649263486667,0.6786618473505444,0.5844462933449899,0.5482834089176438,0.593411303667243,0.6069093123767457,0.5575422051007526,0.4749083203999591,0.3840364260028384,0.28671316304539785,0.19107195611414607,0.12634746346641368,0.16825607797577913,0.25496357311572115,0.33753289458256397,0.42270875208603,0.5058573954290195,0.5685223530682526,0.5221188996106063,0.43032499169033267,0.32669310258587547,0.20966513924151453,0.1743221025738957,0.2911428921650465,0.4265227702967356,0.5569171066615097,0.6831270358972947,0.8089706851785596,0.8768615347521029,0.8098635193969934,0.7550126851231029,0.6806932579678553,0.5899852600486413,0.5614591027742861,0.637415513636244,0.7148857667821904,0.7573113426490736,0.7686993387956003,0.7299632862275938,0.6484156330535344,0.5530917527309454,0.4656148661340107,0.38986140979122075,0.396469112348262,0.4792682870917937,0.5620415135185528,0.639423641622801,0.7237502179133029,0.7684356539046666,0.6975176008328572,0.5919683863513372,0.4806075685051323,0.3582446062497575,0.27203493889341646,0.3474774321243226,0.48054410871648745,0.6096977692011003,0.7378460527999775,0.8664434586908936,0.9513397175475209,0.8939334371139753,0.821087239312086,0.7523943636989077,0.66831989176044,0.5930721088583524,0.6184395086274534,0.6928716213154309,0.723264783230515,0.7101752983686991,0.6618108671975822,0.5821815309758436,0.48965847328148415,0.3955342690328809,0.29997436459312743,0.20864903461339956,0.1707891848251517,0.23232437704896647,0.3128934021321448,0.39595144575206254,0.47979374434998734,0.5473883044287597,0.5193042516329638,0.43765395284614783,0.35482823013455134,0.25581243343926463,0.19042289838384985,0.28913163060703173,0.42132139085165665,0.5519365485902368,0.6782099254142095,0.7931559063727374,0.7960945989159569,0.7203051932869178,0.6662954999387649,0.5825759049080879,0.5093759087610312,0.5437270893781756,0.6210837323282181,0.6614615508596962,0.6542217520250531,0.5948338544750604,0.5411913472054901,0.5848190715353025,0.6218808286524342,0.5860187849230867,0.5110526675141029,0.4289433246344072,0.4280868752937219,0.5145468517134755,0.6061562999808356,0.6663292983737801,0.660545566744533,0.5513671289418673,0.42210257881930424,0.29105554832852754,0.1586076391744511,0.03587292216243254,0.0,0.09412577989591231,0.21334303385785214,0.3260262722923697,0.42560096946367576,0.4678387034360063,0.4028051825687524,0.315476727037459,0.23198352422235313,0.157589651574912,0.11746896561537357,0.16506458923008616,0.25213791484008485,0.34489844352321564,0.44244457468106635,0.5395690330535845,0.6193607758393402,0.6666244182973333,0.6667442888932587,0.5977013705287382,0.5250008390972671,0.5164355214454388,0.6003820336898942,0.6901677993628108,0.7660632409742361,0.802510592947395,0.7217361245824843,0.5873230605651534,0.45381833201685273,0.31840193136944706,0.19161568197460843,0.12796450463874987,0.2048846172726999,0.327104136535719,0.45578085665358437,0.571011933123029,0.659998828693277,0.6517275810701597,0.5677039674579913,0.4934270471787592,0.40618448639950033,0.3366414008693206,0.32930355615476836,0.3892586384986161,0.474833165373548,0.5707943944999636,0.6587191148243092,0.7114369144930741,0.707303955363054,0.6646789888142828,0.586205206936071,0.502923224517001,0.47766394528174816,0.5598651651993225,0.6583572360603602,0.7225310634721751,0.7142464505385466,0.6010495354668661,0.4715852818735926,0.3387853823957414,0.20464788568217074,0.07850167043104683,0.02494694828369015,0.10949859506212345,0.22939226312782246,0.34534129564966776,0.43697473730511005,0.4933453033827888,0.4355433232599353,0.3541661473242481,0.26576233549791617,0.1812193117254144,0.10094998181493908,0.07536549230384093,0.1372061603932524,0.2263665908361987,0.3212912136705426,0.4171527243909017,0.5045776736685745,0.5591614800429832,0.535596091437228,0.48085733072279124,0.4679252372023339,0.5516259963364476,0.6507365245450139,0.7525120147471727,0.8255341818684965,0.836016157489869,0.7305675325682932,0.602557240772601,0.47077336113947865,0.3376359186548492,0.21829771199952042,0.20916784402597832,0.3237038430098562,0.4482508478218037,0.5683830539712456,0.6759374644216076,0.7600890900597417,0.7345167078690116,0.6638125289057446,0.5881373206566196,0.519016847288563,0.45446488639356186,0.36903211555795945,0.32949483387494327,0.3930858757006517,0.47838387420745665,0.5625865333368432,0.6035098324833785,0.5413287582435844,0.46770989103514093,MI
0.7461387707627183,0.7198264838693906,0.649470607068841,0.5373430524662202,0.4159582598206222,0.35706745712522103,0.4551342777577201,0.5591573141680648,0.5973117533769257,0.5927104461015009,0.5514065716050913,0.4593787292262892,0.34934507675381266,0.23466479939754015,0.22527652571327694,0.3339746646205701,0.4531832847965198,0.5786614560179895,0.6824340657699537,0.7507402230452387,0.7907218147702673,0.820465172078034,0.8283628149703683,0.9072644693818686,0.8624010369421171,0.7250031570342004,0.5899331997841895,0.5873044775807315,0.706508357019084,0.7940304897600656,0.7957596914160878,0.7732195525602554,0.7103744720449008,0.6059121237353766,0.4842642661285743,0.39844275494198245,0.46429935511055564,0.5743435089264959,0.63188811098671,0.6173774708159376,0.5768277002125153,0.48740692098622596,0.38311625943936933,0.26782055059957877,0.1747559027806207,0.21814221607309836,0.33620286238971886,0.45607967232005464,0.5693036831453173,0.6595478400753652,0.71585213281474,0.7437253008019402,0.7546279125848749,0.8492263190566036,0.8905872486797479,0.782315633661467,0.6298728371448714,0.5044296336038672,0.5536528000484515,0.6627561117240748,0.6869736370867225,0.6624577392273054,0.6128159814118823,0.5311076066705294,0.4159626914530117,0.3265522175422082,0.3963663754222675,0.5054138531220405,0.5776169201537065,0.5957707124623073,0.5597168108035331,0.47396360897129464,0.3597936964363244,0.24572226962956556,0.21535468782718237,0.32383982940545897,0.4527005279807783,0.5685043059309938,0.6755221336216963,0.7680183441760082,0.8239034955996485,0.8647008302595371,0.859578328990398,0.9449976544801957,1.0,0.8976092906629627,0.7548224310221965,0.6303524630808242,0.6784749618872836,0.7733362423774013,0.7636540392396922,0.7270891664648986,0.6710209181021187,0.5810179662073978,0.47048384991409975,0.3976763461935291,0.4717140765310637,0.5645495554862108,0.596593294327938,0.5777247090487903,0.5182866390888949,0.4331843373881945,0.3133071297340626,0.21354095584561783,0.2597021161481168,0.3747798550848498,0.5027137258830483,0.6192845860835061,0.7195691096376686,0.7948669010286884,0.8279778684920971,0.8382010876758006,0.8576341221640527,0.9108587801953614,0.8173731236643533,0.677869649606119,0.5538472446955645,0.5908666314655027,0.7166451320118159,0.7599521348312166,0.668981338651117,0.5276193156823483,0.3979236929351031,0.2554636372273773,0.08887714665972002,0.0,0.05122329642038359,0.1970654905962621,0.3008233345992273,0.3013898747326702,0.14288293412415154,0.014204714520187345,0.01013326199031006,0.13172938486592045,0.2963810114463068,0.3884513239243663,0.4924313051690521,0.6329539052256932,0.7398596652095901,0.7394988589410545,0.7644997227402088,0.7538514312625124,0.6846648291531876,0.5838036525721031,0.47106647284869263,0.34986825924517273,0.22384713165008963,0.13587629159122905,0.16568709091817269,0.282077961241217,0.39107419991371506,0.47529176548355734,0.5226445610902388,0.5190150615522042,0.4351248415162061,0.3265902648038428,0.29430712521690605,0.3713554510003849,0.4867883183194399,0.5910263122395958,0.6598219597332213,0.6909704884586629,0.6416321133916667,0.5142034566254954,0.3753345822842049,0.3581554348104228,0.4878312086207792,0.6225966888180872,0.7475986728089437,0.8221310135928936,0.7758123530178596,0.7886672453040506,0.751776719738781,0.6939248231951636,0.5879374069100192,0.47231528359269825,0.353495542699958,0.23525450754823352,0.1311350051232374,0.13231154529311606,0.23349554309009424,0.3569266947300713,0.45795180262119395,0.5179345659645529,0.5094159373131215,0.4208686755850586,0.3017787307418107,0.2246743432371816,0.26704096205886874,0.37603480709188153,0.48373711868668456,0.5711475511292021,0.6081835175497465,0.5675359425837918,0.44865218096834925,0.31555969466290845,0.25998727675489786,0.3787432631056675,0.527625999540545,0.6644311269301744,0.6890358609486662,0.6705729335923358,0.67478678174556,0.6364316976176694,0.5611947109231257,0.45559718032984664,0.3289433253017897,0.20846734611159823,0.10132413835868137,0.06010666035643597,0.14293149258341398,0.257247254729037,0.37408380294000576,0.4805308302257636,0.5419555824920499,0.5530716250003156,0.48710641404132815,0.3778129922908757,0.3207869390995812,0.38879055044340705,0.5163984778454207,0.6242616916555859,0.6972054404865466,0.7240455152584215,0.668493288319167,0.5399009541128836,0.40788031916749246,0.3153069963461599,0.3914764458283537,0.5391728664822,0.6866128363743265,0.7591423937143564,0.7149859715757358,0.7218300224392564,0.7008610016049959,0.6405664070053927,0.5443216951882652,0.4273995787027678,0.298140869034476,0.1804966074629375,0.11143425988750888,0.17145138814838257,0.28204174300447127,0.3936006776820089,0.4842570883656463,0.5274257190377698,0.5235641489322846,0.4485823648668932,0.3327888009876845,0.2635100642361916,0.31933534341958136,0.44018536538587894,0.5685003112521132,0.6505212212717701,0.679870579663417,MI
0.4169803766015976,0.38548829406593255,0.42667246653168434,0.49572750952114086,0.5688653352225237,0.6298821824768921,0.6946299909323197,0.743902557622468,0.8259572863488702,0.920168613478761,0.8857532290449988,0.7923855413390455,0.6688136955252548,0.5313132132170115,0.3748002490132194,0.33076981510822234,0.4646652442111283,0.6152583056607805,0.7424621095087027,0.855486458466411,0.8323502684993049,0.7545637211076213,0.7559507278164035,0.703816120619503,0.63357418817623,0.6476856514257876,0.7263212022038537,0.800152103744042,0.7866795709941594,0.7516422660828392,0.7515998149051142,0.764538945549655,0.773821279742553,0.7745839474320202,0.7825456623745146,0.7627209828880157,0.708046688054687,0.6574618714849643,0.5776714841142172,0.5359766279148235,0.5641624489056878,0.6199842494056838,0.6411104831053662,0.693903792814011,0.7498929220233257,0.7982006026208599,0.8647631916656855,0.9241190193714517,0.8562903028045974,0.7628912823900191,0.6447987304328975,0.4835185348030433,0.3301786062652958,0.2561090652733027,0.39802842029561214,0.5588736297532626,0.7065433226584417,0.8398905307672622,0.9685832533701215,1.0000000000000004,0.962950531142464,0.9189355039402147,0.8203957922686365,0.7413982886829413,0.6983789356491052,0.7299555306520626,0.7966957313459537,0.8091521559602639,0.7853539435349002,0.786376069622611,0.8382070667199115,0.8454257905785796,0.8333212624915043,0.7546743711900299,0.6842638818801219,0.6330233417895106,0.5864237085370649,0.5497945850639288,0.5676161809686735,0.6370063792334935,0.7000967231235333,0.7619717551837506,0.8008484524434221,0.8131028242256497,0.8106864753946659,0.8637147821240716,0.9192080655659525,0.8296178179693761,0.7203834661097184,0.6115871490594817,0.4702985239659516,0.32288340584334563,0.29662265846423796,0.43560034544178006,0.5866578138428111,0.7222103233060984,0.847749277112134,0.9240249718067131,0.9148134705289608,0.9370376752269922,0.8682758468652048,0.7798035934945573,0.7224865278107049,0.7500151150620531,0.82962587510448,0.8650331810932594,0.8545690777014294,0.8264469574533524,0.791299693379306,0.7611512777742164,0.7397914786670658,0.745878210479257,0.7289369913534558,0.6707837050260905,0.6038650971024926,0.5293676812703532,0.47102388847251797,0.5061314106747647,0.5858023537445685,0.6460710205884799,0.6672008908602218,0.5833519935829341,0.5026499132022537,0.39008266900814714,0.22057500074985503,0.059846502531393675,0.015202077715079199,0.11542325585369051,0.2860371601374112,0.4173546361528726,0.37661676655909604,0.21849854806881952,0.06033664984596987,0.007523520123784877,0.0549990289028055,0.20962037680775403,0.312923862037505,0.31037118535612596,0.37019751660061884,0.44815426325570185,0.5063763195515363,0.5708215515761483,0.5898920805267376,0.5906590479172649,0.5959618832038847,0.6408977191276501,0.6734016594469519,0.7119960677088062,0.7271673169360162,0.6696272479909982,0.5981385725156261,0.5612938828619369,0.5882726212340583,0.6857242432174684,0.7704091453129194,0.7837613618502544,0.7549345924409585,0.6680943349493362,0.5255196225471122,0.3704756567730847,0.2201501216487416,0.08219793060532599,0.023045870048894468,0.12069976053688602,0.28957058283691994,0.45876034841569835,0.5881964952126171,0.67500629760637,0.6957803416999035,0.6571849451295679,0.6672614842912519,0.6374431721592768,0.5881405468844059,0.5220459750097652,0.4463516810689412,0.38773466563640735,0.39541537204651167,0.4313447437788973,0.4702073919734553,0.5231498990750638,0.5800087338588109,0.6580157475258201,0.7008616113418262,0.6761417255835158,0.6336777882599578,0.6406889209597968,0.6476357157994843,0.5984823053313586,0.5315005157299537,0.5519110790621817,0.6151912526650709,0.71009837827259,0.7870179121006529,0.825989488572803,0.7869608293529216,0.6612108155129817,0.5097299713046595,0.35460310603581346,0.20402934173210197,0.06950321522302083,0.04022047873987633,0.16175167216605146,0.3203590858411127,0.4785003358930138,0.6325055162068209,0.7317089198597952,0.7282698177852382,0.6623191969785887,0.6148037157105999,0.5532328375410587,0.4903351649413348,0.46233452990089097,0.4129561799664745,0.3725002837717799,0.40404287519734705,0.4807297305658973,0.5486502001217723,0.5727672476368251,0.6212473612235967,0.6372017465308519,0.6226137927928481,0.5950873468232643,0.609582759994225,0.6224179195332886,0.6371733853881163,0.6420357450404794,0.5751879313668158,0.48214215850279407,0.4760481988843295,0.5255138005149358,0.574168147393523,0.6007694393313305,0.5646687466150007,0.617441608847193,0.5647917587059159,0.4157428783380439,0.26540506500787586,0.1242653880390443,0.0017319090043601548,0.0,0.13747165113897664,0.29119193241478225,0.4501934194453434,0.6022252399092429,0.7161185426773211,0.7208067106732865,0.6359920261393532,0.5680442945073447,0.5117532074319215,0.4467127007211702,0.3830247059766614,0.31170092604042,0.24668382889643858,0.2249342130744698,0.27412954140164425,MI
0.8899922082619847,0.9190840650460326,0.9389167951831607,0.9319864804872726,0.8742975110020488,0.7815004836188091,0.6811252179451588,0.5805853771642082,0.4784692849772869,0.42639907747778527,0.5132287714616794,0.6225349560727802,0.728271196956108,0.8265279420684475,0.9246540134943777,0.9987055264902713,0.9999999999999998,0.9743684010964861,0.9449954505342768,0.9236577907416017,0.9477114628905452,0.9574795490810326,0.9575762088445561,0.9569736984266768,0.9467089086752087,0.9422424424859834,0.9422098182456942,0.9421790053029129,0.9379432553102987,0.9275292146340377,0.9263197138747021,0.9204467282045872,0.9262007031259276,0.9268471593268901,0.9288238471277663,0.939259726871738,0.9145448935550726,0.8554513055391164,0.789473145445373,0.7139110379350335,0.6386550757732044,0.5754990034811394,0.5932368876171947,0.6491293896354395,0.7091366433112125,0.7641513400565974,0.8153153530157196,0.8549687069197918,0.8795193005359538,0.8960013371640609,0.9112962103002278,0.890629070569694,0.8085313593133303,0.712608168103378,0.6116082865513179,0.543728561174196,0.6008489873417655,0.707526463490417,0.8058958298176073,0.910656975156457,0.987812036454361,0.9810296129024765,0.952722589723366,0.9255396951405339,0.9104151691827911,0.9345722099461355,0.9368291359092586,0.9272761395395832,0.9268494547193582,0.9290859663506164,0.9361908079063876,0.9331952802028616,0.9386223087391488,0.9322216220948312,0.9415785253120605,0.9422096670242086,0.9425116718542059,0.9504021250965973,0.94574072593576,0.9419578308431056,0.9276721579191951,0.8761133915951167,0.8110693846787524,0.7345517758291693,0.6578343102231223,0.5843344392332657,0.5544923542750941,0.5928835403304153,0.6572985130277849,0.7076380850353152,0.7578483281563699,0.7948851781346404,0.8307257246204556,0.8506201645212255,0.8591035030710088,0.8265996416459556,0.7487505692515131,0.6524643347677765,0.5544297062744856,0.4516883946992516,0.39279572389056727,0.4682686220548786,0.5773980984200173,0.6830231561409874,0.7767078540056878,0.8488767360706835,0.8880507980549861,0.8661216832028062,0.832397458735157,0.797818430020208,0.7853034287688268,0.7939829337179212,0.7600731424473703,0.6917105085535591,0.5869981697957869,0.4894405426945927,0.46414052517108817,0.5169433675332782,0.6225447391309851,0.7132819664057932,0.6987707089097948,0.6044140482124962,0.5023033637725913,0.46254026162288997,0.4918098889612874,0.589705009418301,0.6944901234849084,0.7588544237834733,0.7966750303312027,0.820876519613478,0.7673232670135952,0.6709872181598924,0.5686631486909783,0.46600568694999756,0.3649324589576677,0.2564622376096577,0.15752099075913661,0.0555704240361361,0.0,0.06338902374968591,0.16101507213087807,0.2657631521937802,0.3658859080239021,0.46946727955445433,0.5708379381211828,0.6713205391523263,0.7621282984760105,0.8089386738110125,0.7983140814937,0.7663826063203618,0.7319140310977017,0.6834595916674975,0.6349696642256013,0.5743694671721233,0.5188894757769258,0.49502212417474856,0.5304349277016212,0.593615799396723,0.6686224339100704,0.744963155300921,0.81999682474841,0.8803335374828054,0.9040254087259647,0.905329086602767,0.9053301559890052,0.9053300679268517,0.9047270582729967,0.8945222169458764,0.891629584337301,0.8961098422377278,0.8806577527566344,0.8888848748283646,0.8899628144749643,0.8899636300487181,0.8899584155697318,0.8874873184169865,0.8636659992858335,0.8545761599705213,0.8858907891265912,0.9149108003447146,0.9170588739388024,0.8424228888014136,0.7431639381591999,0.6421849506293118,0.5333448710325566,0.43291635523328,0.32942701257920093,0.22007636818145127,0.11316691092884312,0.05822316655887683,0.1167863222776897,0.21870440849729933,0.3167245660955196,0.4244940472110794,0.5257920619933201,0.6277718175806279,0.7268197542033683,0.8200244348803933,0.8571489497922975,0.8435457194998273,0.8190964396563414,0.7800529532412457,0.7291868240242196,0.6744725131183225,0.6155643307388694,0.5567781114483743,0.5249301101543311,0.5492968006982564,0.6143319657304083,0.6888026944921062,0.7639872738291211,0.83423769992872,0.8876429506515235,0.8919201823408576,0.8899692222251583,0.8893812654639228,0.8792547517533189,0.8788621855396415,0.8885220548216377,0.8822314668693123,0.8992214031814403,0.8983505975762791,0.9026012276734254,0.9053221154030477,0.9068457097342832,0.9181132629710487,0.9134236146194581,0.9117414938851904,0.9066670281702869,0.8672416913184156,0.8643380412415389,0.9038934234583069,0.932548139308863,0.937511485745343,0.8633901046616621,0.7607384542054156,0.6607248743131631,0.5568786917196229,0.4504084590752966,0.35225992194916667,0.2460271294726084,0.14900845056112577,0.08040215907852954,0.12889870301086837,0.21017635628980247,0.3036502282186784,0.4017841159678135,0.5079404860960508,0.6058165275198977,0.7079240771549464,0.8051302759060424,0.8834966483407241,0.890921854519821,0.8623972225429755,0.8321142820531533,MI
0.40464981599116556,0.40272959502812244,0.3804067334369672,0.3390354779488096,0.3079512988573405,0.3301670182659906,0.38797552462593,0.44834079251248027,0.49666487131745085,0.5289536722137937,0.5335867943677706,0.5616503089270137,0.5828989144571566,0.6644873494887207,0.762921590294608,0.8651984009300275,0.9605206453545725,0.9999999999999998,0.9277466635799054,0.8270750385654739,0.7257247647683072,0.6201112713377841,0.5205503626232304,0.41242792352020197,0.32004524744335616,0.3455242414970503,0.39004699195251225,0.3743222478468031,0.3143825402003617,0.26656122849815733,0.3028203446072266,0.3544239734919532,0.39506548164457533,0.40989568820071764,0.3989974218716734,0.4050494844379202,0.40692641271518215,0.39394267556945883,0.3614981328415443,0.32298020174253383,0.31786589443465174,0.36394428281669344,0.4329397516933089,0.49376097205784064,0.5302027688337227,0.5509834920578316,0.5428731756555358,0.5504754752482521,0.6018707235952794,0.6862445143531952,0.783841381448134,0.8836388282540739,0.9680356591398056,0.9424458022293851,0.844342301107645,0.7445704410539646,0.6363952348698441,0.5345155610757482,0.4465538718369657,0.36254419111195113,0.29732006335970973,0.32258255164106076,0.3854564859919265,0.3880357041931022,0.3316992090160993,0.26662742262063444,0.26657694487810546,0.3223673065032575,0.3728742073553988,0.4100772919254705,0.43483865743044237,0.4142479880772585,0.39974925003587836,0.399593728753614,0.3715393150232378,0.33374081149420554,0.29773029198921086,0.3229830963657714,0.38039703577916106,0.4410800396488177,0.48817597391148815,0.5339070354598776,0.544221776685107,0.5394858587484974,0.5665755824429961,0.6253622971945083,0.714318484435083,0.8125674761913448,0.9148264082165791,0.9772089337615217,0.9174203278013888,0.8167407818875823,0.7102675384215729,0.6111330136875834,0.5034957829148323,0.40096002345038717,0.30624985016703365,0.3082308441047841,0.3815609605391679,0.41620814398063666,0.38229055112662835,0.31545788303039335,0.2616497337563508,0.29093060856919295,0.35643367622457034,0.39394703931028485,0.4004472088329327,0.4046045191971299,0.39314233878420235,0.38061675530983696,0.36608155930921815,0.33686272097335457,0.2938637460116251,0.3026829923122276,0.361180625247725,0.41884838295330806,0.47830015315631047,0.518042787302843,0.5208680216863779,0.5286340091262061,0.5172105704710959,0.5580537525700942,0.6290983753360082,0.7263072222896778,0.8247678381005243,0.9180155014155924,0.9379588051543164,0.850269316733465,0.7658686634477221,0.6938632014212429,0.5921161237073276,0.513707402919614,0.46559970329033784,0.45985760217654126,0.4627258423280056,0.46341187521729466,0.435292200497327,0.37574880258060994,0.3134390132745646,0.25482027454233314,0.22647761909635578,0.2412072203938116,0.2878873004409066,0.3166884539871295,0.33447764002776315,0.3315098732145698,0.31565427637640453,0.35056822655101194,0.3419016993093267,0.30509589549000027,0.24236860876937905,0.19195660741331122,0.22001213156354438,0.28712515212767475,0.3445961016756909,0.3335336492374139,0.24665741144055464,0.14968042924258085,0.0582289479590008,0.02888057067178429,0.10441948692711689,0.20870030076879487,0.3152342491836875,0.41443154855570685,0.5221210517377906,0.6242242586931719,0.6952826627527011,0.6391131103742917,0.5591964850540936,0.5120018545032805,0.48875945516244523,0.48541799820908627,0.45610070310615947,0.40833525191187037,0.34889990818240535,0.2849617921668395,0.24529896024823228,0.256552545295585,0.3012236154207215,0.33855039221316496,0.35204014077009327,0.3586053265544835,0.38434148295601767,0.3757517284533243,0.337484737870432,0.2931646150627991,0.23690875046311288,0.20061340284640017,0.23338889458286327,0.30188254727464137,0.34276293064695973,0.2956406058901464,0.19706628355626887,0.10014262697978915,0.027927312691122363,0.061688191946357884,0.16182866799921847,0.26152891699347136,0.36699717485936234,0.4700727542819447,0.5718948884036632,0.6743739827234474,0.678258198553962,0.590955217963671,0.5263608949200285,0.4877685151264275,0.49188156991225784,0.49020094194466224,0.46206131852924304,0.42011967839134523,0.3502603037030798,0.2920894686401827,0.2512452890651422,0.253839130861502,0.2973038864860833,0.33662601781247203,0.3360502237962961,0.331267643154854,0.3418780166816304,0.3493068158344974,0.3217676904076294,0.2723704397310043,0.20381476827963252,0.19380921320732658,0.23282832104315898,0.298708711495834,0.32850962246897475,0.26657733936122274,0.17042735545867416,0.07363939389429608,0.0,0.039138454190874805,0.1419957633659119,0.2411586118132354,0.3402616460669552,0.4321229170127403,0.5331436763011455,0.6357066687789634,0.7108227909302574,0.653561149251692,0.566123716621348,0.5072173323654339,0.5030899743942399,0.4831007876210356,0.4741386384217938,0.4480994251150514,0.4048737319848492,0.34639195180016835,0.2846702563439505,0.24197243445722072,0.24886306374770828,0.28485221270043515,0.3320493637194437,0.3452382735273305,0.35513888469907173,MI
0.7461387707627183,0.7198264838693906,0.649470607068841,0.5373430524662202,0.4159582598206222,0.35706745712522103,0.4551342777577201,0.5591573141680648,0.5973117533769257,0.5927104461015009,0.5514065716050913,0.4593787292262892,0.34934507675381266,0.23466479939754015,0.22527652571327694,0.3339746646205701,0.4531832847965198,0.5786614560179895,0.6824340657699537,0.7507402230452387,0.7907218147702673,0.820465172078034,0.8283628149703683,0.9072644693818686,0.8624010369421171,0.7250031570342004,0.5899331997841895,0.5873044775807315,0.706508357019084,0.7940304897600656,0.7957596914160878,0.7732195525602554,0.7103744720449008,0.6059121237353766,0.4842642661285743,0.39844275494198245,0.46429935511055564,0.5743435089264959,0.63188811098671,0.6173774708159376,0.5768277002125153,0.48740692098622596,0.38311625943936933,0.26782055059957877,0.1747559027806207,0.21814221607309836,0.33620286238971886,0.45607967232005464,0.5693036831453173,0.6595478400753652,0.71585213281474,0.7437253008019402,0.7546279125848749,0.8492263190566036,0.8905872486797479,0.782315633661467,0.6298728371448714,0.5044296336038672,0.5536528000484515,0.6627561117240748,0.6869736370867225,0.6624577392273054,0.6128159814118823,0.5311076066705294,0.4159626914530117,0.3265522175422082,0.3963663754222675,0.5054138531220405,0.5776169201537065,0.5957707124623073,0.5597168108035331,0.47396360897129464,0.3597936964363244,0.24572226962956556,0.21535468782718237,0.32383982940545897,0.4527005279807783,0.5685043059309938,0.6755221336216963,0.7680183441760082,0.8239034955996485,0.8647008302595371,0.859578328990398,0.9449976544801957,1.0,0.8976092906629627,0.7548224310221965,0.6303524630808242,0.6784749618872836,0.7733362423774013,0.7636540392396922,0.7270891664648986,0.6710209181021187,0.5810179662073978,0.47048384991409975,0.3976763461935291,0.4717140765310637,0.5645495554862108,0.596593294327938,0.5777247090487903,0.5182866390888949,0.4331843373881945,0.3133071297340626,0.21354095584561783,0.2597021161481168,0.3747798550848498,0.5027137258830483,0.6192845860835061,0.7195691096376686,0.7948669010286884,0.8279778684920971,0.8382010876758006,0.8576341221640527,0.9108587801953614,0.8173731236643533,0.677869649606119,0.5538472446955645,0.5908666314655027,0.7166451320118159,0.7599521348312166,0.668981338651117,0.5276193156823483,0.3979236929351031,0.2554636372273773,0.08887714665972002,0.0,0.05122329642038359,0.1970654905962621,0.3008233345992273,0.3013898747326702,0.14288293412415154,0.014204714520187345,0.01013326199031006,0.13172938486592045,0.2963810114463068,0.3884513239243663,0.4924313051690521,0.6329539052256932,0.7398596652095901,0.7394988589410545,0.7644997227402088,0.7538514312625124,0.6846648291531876,0.5838036525721031,0.47106647284869263,0.34986825924517273,0.22384713165008963,0.13587629159122905,0.16568709091817269,0.282077961241217,0.39107419991371506,0.47529176548355734,0.5226445610902388,0.5190150615522042,0.4351248415162061,0.3265902648038428,0.29430712521690605,0.3713554510003849,0.4867883183194399,0.5910263122395958,0.6598219597332213,0.6909704884586629,0.6416321133916667,0.5142034566254954,0.3753345822842049,0.3581554348104228,0.4878312086207792,0.6225966888180872,0.7475986728089437,0.8221310135928936,0.7758123530178596,0.7886672453040506,0.751776719738781,0.6939248231951636,0.5879374069100192,0.47231528359269825,0.353495542699958,0.23525450754823352,0.1311350051232374,0.13231154529311606,0.23349554309009424,0.3569266947300713,0.45795180262119395,0.5179345659645529,0.5094159373131215,0.4208686755850586,0.3017787307418107,0.2246743432371816,0.26704096205886874,0.37603480709188153,0.48373711868668456,0.5711475511292021,0.6081835175497465,0.5675359425837918,0.44865218096834925,0.31555969466290845,0.25998727675489786,0.3787432631056675,0.527625999540545,0.6644311269301744,0.6890358609486662,0.6705729335923358,0.67478678174556,0.6364316976176694,0.5611947109231257,0.45559718032984664,0.3289433253017897,0.20846734611159823,0.10132413835868137,0.06010666035643597,0.14293149258341398,0.257247254729037,0.37408380294000576,0.4805308302257636,0.5419555824920499,0.5530716250003156,0.48710641404132815,0.3778129922908757,0.3207869390995812,0.38879055044340705,0.5163984778454207,0.6242616916555859,0.6972054404865466,0.7240455152584215,0.668493288319167,0.5399009541128836,0.40788031916749246,0.3153069963461599,0.3914764458283537,0.5391728664822,0.6866128363743265,0.7591423937143564,0.7149859715757358,0.7218300224392564,0.7008610016049959,0.6405664070053927,0.5443216951882652,0.4273995787027678,0.298140869034476,0.1804966074629375,0.11143425988750888,0.17145138814838257,0.28204174300447127,0.3936006776820089,0.4842570883656463,0.5274257190377698,0.5235641489322846,0.4485823648668932,0.3327888009876845,0.2635100642361916,0.31933534341958136,0.44018536538587894,0.5685003112521132,0.6505212212717701,0.679870579663417,MI
0.5436669058077954,0.6209365633060049,0.6556845963427014,0.6053900091093176,0.5246216792275153,0.4359267406727465,0.4008219826878281,0.47680620841613885,0.5392469272394864,0.6080992916192742,0.6802405844811754,0.7544635433785665,0.8326518983725619,0.8555526506559321,0.7697632699745691,0.6690961219213647,0.5506851380523679,0.430462781772881,0.4310147746284083,0.5551674174350532,0.6851971596910476,0.814868412392483,0.941549121758448,1.0,0.9261145130634922,0.8563091120975814,0.7740649263486667,0.6786618473505444,0.5844462933449899,0.5482834089176438,0.593411303667243,0.6069093123767457,0.5575422051007526,0.4749083203999591,0.3840364260028384,0.28671316304539785,0.19107195611414607,0.12634746346641368,0.16825607797577913,0.25496357311572115,0.33753289458256397,0.42270875208603,0.5058573954290195,0.5685223530682526,0.5221188996106063,0.43032499169033267,0.32669310258587547,0.20966513924151453,0.1743221025738957,0.2911428921650465,0.4265227702967356,0.5569171066615097,0.6831270358972947,0.8089706851785596,0.8768615347521029,0.8098635193969934,0.7550126851231029,0.6806932579678553,0.5899852600486413,0.5614591027742861,0.637415513636244,0.7148857667821904,0.7573113426490736,0.7686993387956003,0.7299632862275938,0.6484156330535344,0.5530917527309454,0.4656148661340107,0.38986140979122075,0.396469112348262,0.4792682870917937,0.5620415135185528,0.639423641622801,0.7237502179133029,0.7684356539046666,0.6975176008328572,0.5919683863513372,0.4806075685051323,0.3582446062497575,0.27203493889341646,0.3474774321243226,0.48054410871648745,0.6096977692011003,0.7378460527999775,0.8664434586908936,0.9513397175475209,0.8939334371139753,0.821087239312086,0.7523943636989077,0.66831989176044,0.5930721088583524,0.6184395086274534,0.6928716213154309,0.723264783230515,0.7101752983686991,0.6618108671975822,0.5821815309758436,0.48965847328148415,0.3955342690328809,0.29997436459312743,0.20864903461339956,0.1707891848251517,0.23232437704896647,0.3128934021321448,0.39595144575206254,0.47979374434998734,0.5473883044287597,0.5193042516329638,0.43765395284614783,0.35482823013455134,0.25581243343926463,0.19042289838384985,0.28913163060703173,0.42132139085165665,0.5519365485902368,0.6782099254142095,0.7931559063727374,0.7960945989159569,0.7203051932869178,0.6662954999387649,0.5825759049080879,0.5093759087610312,0.5437270893781756,0.6210837323282181,0.6614615508596962,0.6542217520250531,0.5948338544750604,0.5411913472054901,0.5848190715353025,0.6218808286524342,0.5860187849230867,0.5110526675141029,0.4289433246344072,0.4280868752937219,0.5145468517134755,0.6061562999808356,0.6663292983737801,0.660545566744533,0.5513671289418673,0.42210257881930424,0.29105554832852754,0.1586076391744511,0.03587292216243254,0.0,0.09412577989591231,0.21334303385785214,0.3260262722923697,0.42560096946367576,0.4678387034360063,0.4028051825687524,0.315476727037459,0.23198352422235313,0.157589651574912,0.11746896561537357,0.16506458923008616,0.25213791484008485,0.34489844352321564,0.44244457468106635,0.5395690330535845,0.6193607758393402,0.6666244182973333,0.6667442888932587,0.5977013705287382,0.5250008390972671,0.5164355214454388,0.6003820336898942,0.6901677993628108,0.7660632409742361,0.802510592947395,0.7217361245824843,0.5873230605651534,0.45381833201685273,0.31840193136944706,0.19161568197460843,0.12796450463874987,0.2048846172726999,0.327104136535719,0.45578085665358437,0.571011933123029,0.659998828693277,0.6517275810701597,0.5677039674579913,0.4934270471787592,0.40618448639950033,0.3366414008693206,0.32930355615476836,0.3892586384986161,0.474833165373548,0.5707943944999636,0.6587191148243092,0.7114369144930741,0.707303955363054,0.6646789888142828,0.586205206936071,0.502923224517001,0.47766394528174816,0.5598651651993225,0.6583572360603602,0.7225310634721751,0.7142464505385466,0.6010495354668661,0.4715852818735926,0.3387853823957414,0.20464788568217074,0.07850167043104683,0.02494694828369015,0.10949859506212345,0.22939226312782246,0.34534129564966776,0.43697473730511005,0.4933453033827888,0.4355433232599353,0.3541661473242481,0.26576233549791617,0.1812193117254144,0.10094998181493908,0.07536549230384093,0.1372061603932524,0.2263665908361987,0.3212912136705426,0.4171527243909017,0.5045776736685745,0.5591614800429832,0.535596091437228,0.48085733072279124,0.4679252372023339,0.5516259963364476,0.6507365245450139,0.7525120147471727,0.8255341818684965,0.836016157489869,0.7305675325682932,0.602557240772601,0.47077336113947865,0.3376359186548492,0.21829771199952042,0.20916784402597832,0.3237038430098562,0.4482508478218037,0.5683830539712456,0.6759374644216076,0.7600890900597417,0.7345167078690116,0.6638125289057446,0.5881373206566196,0.519016847288563,0.45446488639356186,0.36903211555795945,0.32949483387494327,0.3930858757006517,0.47838387420745665,0.5625865333368432,0.6035098324833785,0.5413287582435844,0.46770989103514093,MI
0.6096882235566232,0.615025972909895,0.6145631303506907,0.5819292909507245,0.5176265114699845,0.5475400581818075,0.6607616370106415,0.7848298732676859,0.9094765248804286,0.9958821509942659,0.9635556417273481,0.9346973348737464,0.9300970188211943,0.9154445419868358,0.9295262203951138,0.9039572329382812,0.8748047889842994,0.8258447819984136,0.7668552463727734,0.686023102008952,0.6356565677541166,0.6844468863528181,0.7695321959998935,0.8263602721173902,0.8306608291363373,0.8306683966944952,0.8335323903760381,0.8437022717570075,0.8311743065735868,0.8286276763220064,0.814222850690653,0.8289935799301942,0.8341507673440196,0.8539190850508307,0.8565175059135601,0.8539747324341764,0.8373474392973677,0.8535029564634771,0.8470730669865398,0.8049174632859071,0.733819124472431,0.6496834922910741,0.5569942467285465,0.45521038981756945,0.3406856883206424,0.23610648235640053,0.1410641655222289,0.09893777937265869,0.16583257003190344,0.2499865594312496,0.3224337542129465,0.370136223626913,0.42381894717736124,0.45866490302260665,0.5072798114087789,0.5407804271004508,0.5568835877727709,0.5427535385944262,0.5015055553433854,0.4747347397078281,0.5811585673099753,0.6962391789963132,0.8188675829227181,0.9377173543164545,1.0,0.9412611591274906,0.884329870189406,0.871127610653363,0.856636271892671,0.8434294343487583,0.8231538077213587,0.8011225437811182,0.760400647327903,0.7118118979227983,0.6431362415062791,0.615227298696218,0.6800982728809126,0.7445924759634179,0.7983412379188826,0.8163731722985634,0.8181501492944099,0.8050725907352865,0.8048059903715608,0.8056611038644839,0.8230405266354035,0.8306241823145264,0.8350702399642005,0.8501379344554456,0.846146106814774,0.8652560808164482,0.8610208274009432,0.8707498295027616,0.8666524827515492,0.8583203491261404,0.8300459893661962,0.7669095545392839,0.6779150453863627,0.5807608344113353,0.48705591375376134,0.3899749857359489,0.29264058257468406,0.18750841198653712,0.09921947203981984,0.11101307901237334,0.19885271525744264,0.28707280320017814,0.3660619610651774,0.41774134650481276,0.46770502478764175,0.5157849627090787,0.540448498196656,0.5600192105313946,0.5618201385959427,0.5490347200001429,0.4708585961261855,0.4448724604259384,0.5465553640600165,0.6726344342210338,0.7748751900791628,0.8758194413437055,0.9462559333391569,0.8981440504378337,0.8815131702673771,0.8541753391286075,0.8221771311006814,0.8183220517289822,0.766582689496837,0.6435934908404697,0.5187570375273953,0.45917074872778585,0.36756140160973017,0.2219689256587425,0.07782568651534882,0.0,0.0011194725756475954,0.08315491268181852,0.22576665550779396,0.2790425090107509,0.19728656704590541,0.22432629112500857,0.3235040863030032,0.4052175825053075,0.4763090410628914,0.48273863745775625,0.4627218875826724,0.4258539850777483,0.3739628420964647,0.32273157962161214,0.2551637057644003,0.17726200630043465,0.07485762059197576,0.010285640133365526,0.0013809457463977992,0.06572092792890949,0.15471541249250365,0.256876097008945,0.3528221751823444,0.45426446939671283,0.559078414226545,0.6469575416352278,0.7276966945560677,0.784403670939156,0.7935471556050411,0.7837204880130813,0.7935104675770948,0.7824895916630625,0.7688894161377089,0.7655017396441055,0.74573188155221,0.7427487394154815,0.7426826096343051,0.7345832310486831,0.735108304696654,0.7364107651704623,0.7332813475544651,0.7388036239670228,0.6851344137288127,0.6097502218627628,0.5427106516287195,0.5179663423660328,0.5616776991368608,0.6318271026444728,0.6886621024172701,0.7324203422426638,0.7468824922584982,0.7665691558117471,0.7776822167742417,0.7949044095399191,0.8141539242320546,0.8216715550212532,0.731923768777575,0.614006926093575,0.4932263675835866,0.3595742881646724,0.2754171096809168,0.3208013317467846,0.3861322878494433,0.45028189335455693,0.47450161790683243,0.45818827260366923,0.41630331784341923,0.3751104318630514,0.3286779204979027,0.2759783839896448,0.21403130347674715,0.13323337680952196,0.05785423673895718,1.2876665343775073e-05,0.029459641846883766,0.10644975575956162,0.21245944211662238,0.32411279797167225,0.424389168030713,0.5226638337940939,0.6151872838340671,0.7002102948388593,0.7619112624077751,0.7685926053831444,0.7686035385695442,0.7686035385695442,0.7686035385695442,0.7686035385695442,0.7680232053344342,0.751764055613636,0.7482521976627803,0.7671313505231572,0.7686029971145976,0.7686035385695442,0.7686035385695442,0.7683996098622883,0.7496918533487333,0.6809083187970044,0.5900566434088379,0.541852263880414,0.5589405223329758,0.6365155980562616,0.709872914579412,0.7675269974130776,0.8142019305069574,0.8356123457587676,0.8296864989843655,0.837965323777845,0.8541833080043642,0.8705429816247996,0.8342106818899406,0.7147262457771761,0.5777783196003048,0.4583545167355547,0.335299205344203,0.29368014456395075,0.3654732044539313,0.44870083807462713,0.5148353130057792,0.533734341163111,0.5155345733822054,MI
0.6096882235566232,0.615025972909895,0.6145631303506907,0.5819292909507245,0.5176265114699845,0.5475400581818075,0.6607616370106415,0.7848298732676859,0.9094765248804286,0.9958821509942659,0.9635556417273481,0.9346973348737464,0.9300970188211943,0.9154445419868358,0.9295262203951138,0.9039572329382812,0.8748047889842994,0.8258447819984136,0.7668552463727734,0.686023102008952,0.6356565677541166,0.6844468863528181,0.7695321959998935,0.8263602721173902,0.8306608291363373,0.8306683966944952,0.8335323903760381,0.8437022717570075,0.8311743065735868,0.8286276763220064,0.814222850690653,0.8289935799301942,0.8341507673440196,0.8539190850508307,0.8565175059135601,0.8539747324341764,0.8373474392973677,0.8535029564634771,0.8470730669865398,0.8049174632859071,0.733819124472431,0.6496834922910741,0.5569942467285465,0.45521038981756945,0.3406856883206424,0.23610648235640053,0.1410641655222289,0.09893777937265869,0.16583257003190344,0.2499865594312496,0.3224337542129465,0.370136223626913,0.42381894717736124,0.45866490302260665,0.5072798114087789,0.5407804271004508,0.5568835877727709,0.5427535385944262,0.5015055553433854,0.4747347397078281,0.5811585673099753,0.6962391789963132,0.8188675829227181,0.9377173543164545,1.0,0.9412611591274906,0.884329870189406,0.871127610653363,0.856636271892671,0.8434294343487583,0.8231538077213587,0.8011225437811182,0.760400647327903,0.7118118979227983,0.6431362415062791,0.615227298696218,0.6800982728809126,0.7445924759634179,0.7983412379188826,0.8163731722985634,0.8181501492944099,0.8050725907352865,0.8048059903715608,0.8056611038644839,0.8230405266354035,0.8306241823145264,0.8350702399642005,0.8501379344554456,0.846146106814774,0.8652560808164482,0.8610208274009432,0.8707498295027616,0.8666524827515492,0.8583203491261404,0.8300459893661962,0.7669095545392839,0.6779150453863627,0.5807608344113353,0.48705591375376134,0.3899749857359489,0.29264058257468406,0.18750841198653712,0.09921947203981984,0.11101307901237334,0.19885271525744264,0.28707280320017814,0.3660619610651774,0.41774134650481276,0.46770502478764175,0.5157849627090787,0.540448498196656,0.5600192105313946,0.5618201385959427,0.5490347200001429,0.4708585961261855,0.4448724604259384,0.5465553640600165,0.6726344342210338,0.7748751900791628,0.8758194413437055,0.9462559333391569,0.8981440504378337,0.8815131702673771,0.8541753391286075,0.8221771311006814,0.8183220517289822,0.766582689496837,0.6435934908404697,0.5187570375273953,0.45917074872778585,0.36756140160973017,0.2219689256587425,0.07782568651534882,0.0,0.0011194725756475954,0.08315491268181852,0.22576665550779396,0.2790425090107509,0.19728656704590541,0.22432629112500857,0.3235040863030032,0.4052175825053075,0.4763090410628914,0.48273863745775625,0.4627218875826724,0.4258539850777483,0.3739628420964647,0.32273157962161214,0.2551637057644003,0.17726200630043465,0.07485762059197576,0.010285640133365526,0.0013809457463977992,0.06572092792890949,0.15471541249250365,0.256876097008945,0.3528221751823444,0.45426446939671283,0.559078414226545,0.6469575416352278,0.7276966945560677,0.784403670939156,0.7935471556050411,0.7837204880130813,0.7935104675770948,0.7824895916630625,0.7688894161377089,0.7655017396441055,0.74573188155221,0.7427487394154815,0.7426826096343051,0.7345832310486831,0.735108304696654,0.7364107651704623,0.7332813475544651,0.7388036239670228,0.6851344137288127,0.6097502218627628,0.5427106516287195,0.5179663423660328,0.5616776991368608,0.6318271026444728,0.6886621024172701,0.7324203422426638,0.7468824922584982,0.7665691558117471,0.7776822167742417,0.7949044095399191,0.8141539242320546,0.8216715550212532,0.731923768777575,0.614006926093575,0.4932263675835866,0.3595742881646724,0.2754171096809168,0.3208013317467846,0.3861322878494433,0.45028189335455693,0.47450161790683243,0.45818827260366923,0.41630331784341923,0.3751104318630514,0.3286779204979027,0.2759783839896448,0.21403130347674715,0.13323337680952196,0.05785423673895718,1.2876665343775073e-05,0.029459641846883766,0.10644975575956162,0.21245944211662238,0.32411279797167225,0.424389168030713,0.5226638337940939,0.6151872838340671,0.7002102948388593,0.7619112624077751,0.7685926053831444,0.7686035385695442,0.7686035385695442,0.7686035385695442,0.7686035385695442,0.7680232053344342,0.751764055613636,0.7482521976627803,0.7671313505231572,0.7686029971145976,0.7686035385695442,0.7686035385695442,0.7683996098622883,0.7496918533487333,0.6809083187970044,0.5900566434088379,0.541852263880414,0.5589405223329758,0.6365155980562616,0.709872914579412,0.7675269974130776,0.8142019305069574,0.8356123457587676,0.8296864989843655,0.837965323777845,0.8541833080043642,0.8705429816247996,0.8342106818899406,0.7147262457771761,0.5777783196003048,0.4583545167355547,0.335299205344203,0.29368014456395075,0.3654732044539313,0.44870083807462713,0.5148353130057792,0.533734341163111,0.5155345733822054,MI
0.5436669058077954,0.6209365633060049,0.6556845963427014,0.6053900091093176,0.5246216792275153,0.4359267406727465,0.4008219826878281,0.47680620841613885,0.5392469272394864,0.6080992916192742,0.6802405844811754,0.7544635433785665,0.8326518983725619,0.8555526506559321,0.7697632699745691,0.6690961219213647,0.5506851380523679,0.430462781772881,0.4310147746284083,0.5551674174350532,0.6851971596910476,0.814868412392483,0.941549121758448,1.0,0.9261145130634922,0.8563091120975814,0.7740649263486667,0.6786618473505444,0.5844462933449899,0.5482834089176438,0.593411303667243,0.6069093123767457,0.5575422051007526,0.4749083203999591,0.3840364260028384,0.28671316304539785,0.19107195611414607,0.12634746346641368,0.16825607797577913,0.25496357311572115,0.33753289458256397,0.42270875208603,0.5058573954290195,0.5685223530682526,0.5221188996106063,0.43032499169033267,0.32669310258587547,0.20966513924151453,0.1743221025738957,0.2911428921650465,0.4265227702967356,0.5569171066615097,0.6831270358972947,0.8089706851785596,0.8768615347521029,0.8098635193969934,0.7550126851231029,0.6806932579678553,0.5899852600486413,0.5614591027742861,0.637415513636244,0.7148857667821904,0.7573113426490736,0.7686993387956003,0.7299632862275938,0.6484156330535344,0.5530917527309454,0.4656148661340107,0.38986140979122075,0.396469112348262,0.4792682870917937,0.5620415135185528,0.639423641622801,0.7237502179133029,0.7684356539046666,0.6975176008328572,0.5919683863513372,0.4806075685051323,0.3582446062497575,0.27203493889341646,0.3474774321243226,0.48054410871648745,0.6096977692011003,0.7378460527999775,0.8664434586908936,0.9513397175475209,0.8939334371139753,0.821087239312086,0.7523943636989077,0.66831989176044,0.5930721088583524,0.6184395086274534,0.6928716213154309,0.723264783230515,0.7101752983686991,0.6618108671975822,0.5821815309758436,0.48965847328148415,0.3955342690328809,0.29997436459312743,0.20864903461339956,0.1707891848251517,0.23232437704896647,0.3128934021321448,0.39595144575206254,0.47979374434998734,0.5473883044287597,0.5193042516329638,0.43765395284614783,0.35482823013455134,0.25581243343926463,0.19042289838384985,0.28913163060703173,0.42132139085165665,0.5519365485902368,0.6782099254142095,0.7931559063727374,0.7960945989159569,0.7203051932869178,0.6662954999387649,0.5825759049080879,0.5093759087610312,0.5437270893781756,0.6210837323282181,0.6614615508596962,0.6542217520250531,0.5948338544750604,0.5411913472054901,0.5848190715353025,0.6218808286524342,0.5860187849230867,0.5110526675141029,0.4289433246344072,0.4280868752937219,0.5145468517134755,0.6061562999808356,0.6663292983737801,0.660545566744533,0.5513671289418673,0.42210257881930424,0.29105554832852754,0.1586076391744511,0.03587292216243254,0.0,0.09412577989591231,0.21334303385785214,0.3260262722923697,0.42560096946367576,0.4678387034360063,0.4028051825687524,0.315476727037459,0.23198352422235313,0.157589651574912,0.11746896561537357,0.16506458923008616,0.25213791484008485,0.34489844352321564,0.44244457468106635,0.5395690330535845,0.6193607758393402,0.6666244182973333,0.6667442888932587,0.5977013705287382,0.5250008390972671,0.5164355214454388,0.6003820336898942,0.6901677993628108,0.7660632409742361,0.802510592947395,0.7217361245824843,0.5873230605651534,0.45381833201685273,0.31840193136944706,0.19161568197460843,0.12796450463874987,0.2048846172726999,0.327104136535719,0.45578085665358437,0.571011933123029,0.659998828693277,0.6517275810701597,0.5677039674579913,0.4934270471787592,0.40618448639950033,0.3366414008693206,0.32930355615476836,0.3892586384986161,0.474833165373548,0.5707943944999636,0.6587191148243092,0.7114369144930741,0.707303955363054,0.6646789888142828,0.586205206936071,0.502923224517001,0.47766394528174816,0.5598651651993225,0.6583572360603602,0.7225310634721751,0.7142464505385466,0.6010495354668661,0.4715852818735926,0.3387853823957414,0.20464788568217074,0.07850167043104683,0.02494694828369015,0.10949859506212345,0.22939226312782246,0.34534129564966776,0.43697473730511005,0.4933453033827888,0.4355433232599353,0.3541661473242481,0.26576233549791617,0.1812193117254144,0.10094998181493908,0.07536549230384093,0.1372061603932524,0.2263665908361987,0.3212912136705426,0.4171527243909017,0.5045776736685745,0.5591614800429832,0.535596091437228,0.48085733072279124,0.4679252372023339,0.5516259963364476,0.6507365245450139,0.7525120147471727,0.8255341818684965,0.836016157489869,0.7305675325682932,0.602557240772601,0.47077336113947865,0.3376359186548492,0.21829771199952042,0.20916784402597832,0.3237038430098562,0.4482508478218037,0.5683830539712456,0.6759374644216076,0.7600890900597417,0.7345167078690116,0.6638125289057446,0.5881373206566196,0.519016847288563,0.45446488639356186,0.36903211555795945,0.32949483387494327,0.3930858757006517,0.47838387420745665,0.5625865333368432,0.6035098324833785,0.5413287582435844,0.46770989103514093,MI
0.7968266255266356,0.8638926779382534,0.8748918464565834,0.8617869609909388,0.8625344865000799,0.8743403537716086,0.8711152440631915,0.8545349555948536,0.8743596251062002,0.8627857783651254,0.8843514080684662,0.8558189463617834,0.7944358047748574,0.7091258209393092,0.6145600998460057,0.5357416846520175,0.509473355415424,0.5562709137807702,0.5967937131045469,0.6627413515996659,0.6709079503836555,0.6959191764448356,0.7083348250759331,0.7164974970552742,0.7255293907106268,0.7174788193908723,0.6530305843845374,0.5466115864106609,0.4202570914395145,0.310272936137999,0.36325241024304766,0.4882123440855044,0.6180829798302887,0.7444980465843849,0.8696069816002208,0.9693103818634579,0.9683008860677256,0.8870079594271805,0.8204297639648983,0.7404915513540966,0.6985633525631063,0.750092042816767,0.7956706684622605,0.8037352942698752,0.8129734805552964,0.8110931106525325,0.8349971518358914,0.8494411800989874,0.8247161508227281,0.8190466778282448,0.8035499011770426,0.8010208665953469,0.800459780743644,0.7883506818769277,0.7906782218731854,0.7353152499993612,0.6449309134586634,0.5560877414743248,0.4737065232762827,0.46109252451756566,0.5195854304375231,0.5903886690445139,0.635527159864651,0.6665293394898066,0.6870836050960967,0.7220777759011816,0.7583631970203855,0.7579581086778582,0.7548908473832681,0.6994441641188054,0.5998757901727201,0.4810254437465238,0.47900955778069054,0.5961837120758524,0.7295856480911342,0.8502354983967555,0.9607642529531595,1.0,0.9276965237519859,0.8495148133068096,0.7803805241360027,0.7136703053167848,0.7399896011062741,0.7942106394217214,0.8177838265060062,0.8192091154759402,0.8088760557369947,0.8028629793458033,0.8003324635916895,0.7756232111885035,0.7846713348349166,0.7768962735963614,0.7943580442333218,0.7734117749372227,0.8013787284450253,0.8273499936723958,0.8508151673169042,0.8230095397546173,0.7821592843848362,0.7044171120955691,0.6080800154502417,0.6076647198659524,0.6669778563346993,0.7083954484685084,0.7227483256480243,0.7480002705043263,0.7646683772255947,0.7828131993603002,0.7795629713263525,0.75649004773955,0.7223064604631966,0.6287279572419289,0.5751689553287727,0.67487502884086,0.804699787457583,0.9100587372574451,0.9273671256706626,0.8680856536237775,0.803928012789676,0.8422296187681404,0.7863480914861634,0.6629070612226804,0.5633438016079313,0.49540730926176835,0.36304569800888986,0.2348123006914844,0.20447193105074213,0.2952540683721523,0.43110754371492765,0.47566596743309075,0.372964313609391,0.2456329941131683,0.11942948958578192,0.0021558180298755225,0.0,0.12132819487033242,0.22180613326846066,0.3423834059803399,0.460930678661851,0.5748736000477832,0.628508653272871,0.6195916253838893,0.6638557380927055,0.6414253226252491,0.6125464943025016,0.6222831008777678,0.5839106705455648,0.5474923829003244,0.4994799313044931,0.4762514384547818,0.5377285524530797,0.6266028419742691,0.695473997361673,0.725597618749267,0.72847600818513,0.7110017681007168,0.6587684252683261,0.6452442743843356,0.6581704544398277,0.6660777466168932,0.6274385476520914,0.6615699523311305,0.7019444710208154,0.693604277375091,0.7152036166521669,0.7145856847783105,0.7074586913945891,0.6716370233251348,0.6011965622972055,0.5904892977591532,0.6086216761420005,0.6913809660978791,0.7586956932687143,0.8005984889995466,0.7381040769803051,0.6132530484138194,0.48573643260542276,0.36256692425770076,0.2318327525154107,0.10945337539211142,0.06830262386298536,0.165928810206053,0.28122665925609924,0.4013716810750476,0.5263495655164698,0.62483629652731,0.6301741137137733,0.6145792860254047,0.5811137532154445,0.5561027221612327,0.5335966237220684,0.5056756412465431,0.4652685489018231,0.39401936385882896,0.3297148512469814,0.35938403717833545,0.4179774331733759,0.514592023920712,0.5961527630420655,0.6445350879081229,0.6606256523224556,0.686973128541934,0.7000698687985905,0.6879335309703287,0.687582920313353,0.697017275094395,0.7025062294527777,0.7161471988908579,0.7070746408570225,0.6946045948729713,0.6772972951920271,0.6309626214559034,0.5913682699203759,0.6209021923753233,0.7095506212614109,0.7768704653028067,0.8233236486343976,0.7533987302649114,0.6225958183059581,0.49626893672309125,0.366787309459804,0.2370181138063523,0.11129295055745514,0.00016774037657318885,0.006920801733548032,0.11576403722970596,0.24060853134171545,0.363758022835281,0.4903012876030135,0.5856137713914316,0.6021445044865623,0.5957576608207789,0.5812315849571892,0.5495839756193086,0.5176109248638556,0.49991153678355627,0.4400791285836272,0.3971528895829515,0.4431387838981813,0.5144706319947878,0.6062895211635375,0.6895774095196505,0.7561398362529563,0.7682431161475987,0.7414229547096682,0.7729293421715733,0.7321868728172061,0.72685477425506,0.7176001160206593,0.7220546165687116,0.7601189986762558,0.7475514480122136,0.7352173466542684,0.7538615349888396,0.6966448953304161,MI
0.9343892582453001,0.9055231535003124,0.8830136688474713,0.8963218400048026,0.9073767306487427,0.9050381182820254,0.9059506865663741,0.9049653763791438,0.9032719040176275,0.9028565021830944,0.9054646181035252,0.8967479300634856,0.8774237218502797,0.8473097891303784,0.8207157737660161,0.838831802426841,0.8814337654083245,0.9222043554618667,0.9591193193925095,0.9789533370187694,0.9933809211520533,0.9949067474918049,0.9664903200779614,0.9171652466691821,0.8570363519645369,0.7979975126525262,0.7345239270589908,0.6702461902959816,0.6047405722474941,0.5404359444535489,0.47161798245478015,0.4071658070964329,0.3622393935440381,0.4051357138191659,0.4726051751603225,0.5370931653162195,0.6062296303610105,0.6717572250344964,0.7382576286304369,0.8055415371293885,0.8694373268701853,0.9295882747230132,0.9517463438347255,0.9307934508417365,0.9039040536439512,0.9128304772104389,0.9205711180715132,0.9183030497434256,0.9164923936816242,0.9067698394635698,0.9041202932650053,0.9070653907076659,0.9033361065997171,0.8866544385245377,0.8607025986027118,0.832309627183126,0.8316381001091216,0.8688308653796045,0.9119453334680873,0.9495602260656036,0.9740413713611106,0.9805626194068159,0.9828676343915667,0.9527782626004796,0.9017447342079653,0.8413163936934637,0.777843346753386,0.7133369440889102,0.6493829350853172,0.5828477710374016,0.5181556609483815,0.44898320613278075,0.38811266173539594,0.3920171932912868,0.45780687563300226,0.5275332388345273,0.5972279463577221,0.6642390925219749,0.729325352437835,0.7971484285364324,0.8609338755331372,0.9204285565469498,0.9370304074513508,0.9093952788543592,0.8826883091994403,0.8918763085784255,0.9049885030998671,0.9047962939805715,0.903814832053142,0.9006389365420747,0.902926930627672,0.9057482066801633,0.9068288125510037,0.8930864817077425,0.8686459718105405,0.8356973432026228,0.8226983856880968,0.8553631571035613,0.897106177473436,0.9391183854512203,0.9729680457765902,0.9869053991438513,0.9996980668926948,1.0,0.9710192106735317,0.9193846234937827,0.859578892697816,0.8046959926243172,0.7432829417967238,0.6796296197323027,0.6203379221708998,0.5564508452763847,0.4890713410067369,0.42467031936750677,0.35557939394723015,0.2898688462691966,0.223538934242821,0.1541734293024687,0.09148078103084006,0.06809965297062293,0.12010079483301295,0.18955265904668073,0.25928376689992905,0.329013377467942,0.3979815613743656,0.4621502151013607,0.5302411314218286,0.594891472031762,0.6550523062897372,0.6983386420739713,0.7622895580422172,0.8175052406018549,0.8761537728360188,0.9333933068479349,0.9696813526291373,0.9676338224868576,0.9532307135379047,0.9256544285500151,0.881792242959769,0.8405967557055626,0.8038326705576829,0.7942328316026547,0.8191272407482296,0.8513953744405499,0.8720754487472032,0.8822587727003378,0.878112753998603,0.8771102637043938,0.8784670002878522,0.8822338148364518,0.876746590242714,0.8611743122028103,0.8526100742183459,0.8766650680233082,0.8857945203601337,0.835806444167008,0.7717214287137838,0.7045587131928829,0.6394060263347195,0.5725125691954631,0.5049281197595331,0.4403111778298341,0.3709720711151354,0.3025050311127665,0.23834060268573198,0.1693972481654078,0.09991825584991765,0.035595637377236256,0.0,0.0449933765178937,0.10765920633110454,0.16289013868691649,0.23072424324611984,0.298759476526268,0.3631088078123137,0.43229375518950186,0.5010589647920775,0.5651884376577451,0.6327909786943123,0.6966169477974286,0.7604376934850886,0.823938923809716,0.8865073959910402,0.9401340991441792,0.9576989494814968,0.950742906410739,0.9320129892935384,0.8956717821869954,0.8548058773794164,0.8128862263026947,0.7925490871765654,0.8097448507333632,0.8393618503338388,0.8657657319464426,0.8786392856960085,0.8804092226103074,0.8778618473916958,0.8855178976743475,0.89022261693521,0.8924618852860254,0.8951092908555925,0.8833112389511907,0.8692271521265739,0.8881160896395613,0.9067400559176336,0.8640649267238761,0.7969528756110585,0.7324843433233795,0.6642598115329063,0.6001267139920913,0.5315377372993917,0.4661680215580706,0.39947207729473266,0.3298578962720319,0.26344698273879386,0.19781456993807855,0.12822572107382746,0.0595054580044872,0.013417296582706684,0.042460808687602214,0.10840602813708372,0.17449819022745838,0.24040402705448782,0.3094422471734304,0.3737568253857889,0.44187375458313827,0.5115955542351339,0.5813168170731265,0.6493681877257426,0.7128602977859574,0.7764024954193168,0.8416799667678757,0.9036107513223709,0.9515569511803587,0.9681405302769698,0.9594279441989203,0.9404708129223788,0.9057497802810278,0.8626468691180319,0.8209476122805012,0.7920533763587719,0.8010997906016385,0.834849527487666,0.8628712792888652,0.8794973322552758,0.8801428379110142,0.8771553589253199,0.877431999863523,0.878787365258925,0.8801578156383177,0.8807499793509118,0.8566092760395393,0.8563119043906621,0.8810296182981102,0.8839725369290138,MI
