0,1,2,3,4,5,6,7,8,9,10,11,12,13,14,15,16,17,18,19,20,21,22,23,24,25,26,27,28,29,30,31,32,33,34,35,36,37,38,39,40,41,42,43,44,45,46,47,48,49,50,51,52,53,54,55,56,57,58,59,60,61,62,63,64,65,66,67,68,69,70,71,72,73,74,75,76,77,78,79,80,81,82,83,84,85,86,87,88,89,90,91,92,93,94,95,96,97,98,99,100,101,102,103,104,105,106,107,108,109,110,111,112,113,114,115,116,117,118,119,120,121,122,123,124,125,126,127,128,129,130,131,132,133,134,135,136,137,138,139,140,141,142,143,144,145,146,147,148,149,150,151,152,153,154,155,156,157,158,159,160,161,162,163,164,165,166,167,168,169,170,171,172,173,174,175,176,177,178,179,180,181,182,183,184,185,186,187,188,189,190,191,192,193,194,195,196,197,198,199,200,201,202,203,204,205,206,207,208,209,210,211,212,213,214,215,216,217,218,219,220,221,222,223,224,225,226,227,228,229,230,231,232,233,234,235,236,237,238,239,240,241,242,243,244,245,246,247,248,249,250,251,252,253,254,Target
0.43231309065358525,0.48962194831231587,0.5808103581130286,0.6765025075905791,0.7637415772158622,0.865487310463743,0.956098227769957,0.9550658178220099,0.8630316350042557,0.7464887580579962,0.6361065628009346,0.5290209241511552,0.42326874822316674,0.3299933924888103,0.2991613175378145,0.35827158552098526,0.391230035145695,0.3734154882328653,0.37635226613635764,0.3556108456864182,0.34054140037273095,0.3554499063385683,0.30536122704707935,0.28443720773416326,0.29432258605881234,0.3256937190543927,0.32268090434069485,0.31727265521065684,0.32308136235503904,0.3081136804107998,0.28578460147973983,0.29985604333612415,0.30114560958280423,0.2979281658410686,0.2902363855851342,0.28034727362717593,0.2628866793704643,0.2410131919704308,0.26453432912843056,0.30984023681756057,0.34503812613883955,0.3769680653284895,0.4021414313066036,0.4138356514020023,0.40944057150831314,0.3721294705531486,0.35342123792013647,0.3951969367436572,0.49239879557641286,0.5845898478645535,0.6787575231157525,0.7710482833328243,0.8666879272464691,0.8879518584304553,0.8025736647493464,0.6959569940087027,0.5864369150843851,0.4800508801690557,0.3686217728411316,0.2587696855468695,0.15866304799886288,0.1605791784020627,0.22582684817833432,0.2224482301149786,0.21574163634458898,0.2220469641273417,0.22454916386667723,0.24131716332176856,0.23527874254464232,0.19510065777423868,0.18297311137831107,0.2082828707764488,0.21046995760574427,0.2218731778064318,0.23836562502252834,0.22846381409441419,0.20649386986869978,0.1866270367698748,0.1940720312782993,0.1800408453994149,0.14127281926964264,0.12293652493636653,0.13534369558637982,0.1813575640918157,0.2177601810140617,0.23612398407489055,0.2605544434939775,0.30184646644493585,0.3445202828984031,0.3865465639753425,0.4110641763365428,0.40012800179529817,0.39049254960801694,0.3730518572284933,0.3983158865448506,0.48080110927774733,0.5777988524516959,0.6755026133573527,0.7757390044202337,0.8742191165519202,0.9686005580335779,1.0,0.9234666550307176,0.819264664170718,0.7143556431866238,0.6016390700383476,0.49320151678385704,0.3841492905046473,0.28452057575727263,0.2918152735389765,0.3569764359509051,0.40421454965439096,0.4429892026346405,0.45335894063394644,0.45142008106785614,0.4475670192200445,0.4322291747370346,0.37616587034455673,0.3259813867324177,0.3303496075138015,0.36004971076028625,0.3629816129033827,0.3501252866311999,0.3688453029193335,0.36789200368513564,0.3646014731282947,0.3513889048713712,0.33268839110733817,0.3169846676525343,0.27220332473850606,0.25530048529201244,0.26913075199184755,0.29029141288578764,0.31069018417332295,0.30161047049089174,0.2844238873408025,0.2832527705546801,0.2904734973737284,0.26483158996644374,0.236748154146305,0.2710808728670071,0.31673194018368633,0.364836999685914,0.37367116143604484,0.36875710372781123,0.3709999520898073,0.33708638572600336,0.27291723207994645,0.1774712673591079,0.09254843946509439,0.08413018964020047,0.16732015889579044,0.26868896323638713,0.3791771224017575,0.4830888406637759,0.5988093630860272,0.7165629946316696,0.7947125220702889,0.7301954448818795,0.6295159261109258,0.5308170184846288,0.4387399348551755,0.3590456702683906,0.30319569241003963,0.29303476582801746,0.31212833490946723,0.322055354583652,0.3336162848180031,0.29593449910293845,0.2488318981421509,0.20590462363944528,0.17679166850962513,0.15525285838712222,0.13171977454625328,0.08637597348089177,0.03861185600604644,0.03774046227315697,0.0634408419967194,0.0934839627100219,0.12098756397332888,0.125606692279161,0.12165898876456893,0.1399635812631681,0.15798604542222794,0.175429087098796,0.15126974874414367,0.1422850434095042,0.13366989359381032,0.09419996515184215,0.11150314162305275,0.14403896612277256,0.17227550975779016,0.1531411956369686,0.15181795534958953,0.15218463206613464,0.15807616391774193,0.10677198605188076,0.02063293422152146,0.0,0.07506264394414419,0.185876293497091,0.3037813915645349,0.4129099861857002,0.521650700448582,0.633068035464563,0.6795282025978904,0.6044482345384354,0.5113151313248498,0.4194641004379074,0.33578578576676055,0.28747353420561295,0.27595432588089075,0.3129930395013245,0.34653958930085693,0.337166668745696,0.31603583811455804,0.28516510975961573,0.25964786501607273,0.21816935173017304,0.1794293966444278,0.17607839138996795,0.19360982789682035,0.2177183277307444,0.21452065081894522,0.22599901496540564,0.22571395414102646,0.21761668050151028,0.234462120340035,0.2492962540644572,0.25399883301932125,0.24604220916148423,0.25501178755201526,0.23255092130634392,0.20695722276567352,0.20816946513444456,0.25352843358101484,0.2681023992373417,0.2819494634271664,0.3003734182286397,0.3064386793874996,0.2963277038064924,0.2142111285081998,0.12674640690019068,0.09168772301614636,0.1649982317676102,0.2782207505132135,0.3882934274902303,0.4955956005191706,0.6014251312339982,0.6970106661161846,0.6718584931178992,0.5793403501407437,0.4917529240043921,0.4116720254532784,0.3621043469793186,MI
0.43418574591263615,0.4929228910790553,0.55979471401959,0.6356415173074208,0.72541385655792,0.8170522856854074,0.9041769848785128,0.9413236009024948,0.8758491259255792,0.7774038295743748,0.7048682123422092,0.6762125951143452,0.6649405373052126,0.6621397056898901,0.6417018963383383,0.6102575287078988,0.5972196883578922,0.6069557942156736,0.6451731140390471,0.6588869536206399,0.6549234765710847,0.6611497193472606,0.6590941799057315,0.6557221437595617,0.6321982991903197,0.6024175613713811,0.5687020708643364,0.5131116491240453,0.44803853536165517,0.3801976909408251,0.3116553449329744,0.23922299846533224,0.17433582182818919,0.11883653725783416,0.09988441356236621,0.14589840505804252,0.2060690922273103,0.27256364430801105,0.3355956552069579,0.38711540914544806,0.44295920163494773,0.5158474991620208,0.5910358309352535,0.6639392719086927,0.7447364250346353,0.8353771797909968,0.9249068902353115,0.9999999999999998,0.9869344300475229,0.9001743122410615,0.8094601208083418,0.7181976554875622,0.6661327866315225,0.6629114323664271,0.6571526820314906,0.6506956078536679,0.620226720965247,0.5863278668069067,0.600130048257997,0.6586241133345172,0.6802063259297275,0.6677548778218496,0.6523357205314924,0.6272409590880941,0.5979792931728263,0.5431254489064952,0.483346917560741,0.4206569972074392,0.35369837604414145,0.28341079089529475,0.21620843583917138,0.15279233854647756,0.11529934214551929,0.14416716997632206,0.2034772664536011,0.26789482304030865,0.32942309945357207,0.38480543692668623,0.43842001563898214,0.5075427769311853,0.5755842679742964,0.6488321648735031,0.7345229793612431,0.8182334097651471,0.8589859667273025,0.8027932810226621,0.7276828131356197,0.6479199548316117,0.6384895175161469,0.6494268579626608,0.6421837998017936,0.6437344457479564,0.6127935967329698,0.5760711705927022,0.5660081109128845,0.6046664359722389,0.6345703585117961,0.6346929815742588,0.6388395000356375,0.6257732603972956,0.6017612198404187,0.5718414198617177,0.5391614213753899,0.48216146636374346,0.4148522381709123,0.35260169677336717,0.28487428036697504,0.21319506483003114,0.1409003065839305,0.07851352187299732,0.04919098400062727,0.09653052146199537,0.15551032651210184,0.21732896529065293,0.28100875824489235,0.33910916266938096,0.3934273674652575,0.4509289559195466,0.518599930550202,0.5863309085173982,0.6628705254024332,0.7391565951428805,0.8198352874279176,0.8209693206936828,0.7359755364285141,0.6558754345669227,0.6357776277795095,0.6342185621801824,0.6268514372816403,0.6009895733069037,0.5657058336784828,0.5599950591063572,0.542317471311413,0.49760879928830026,0.5038721386057328,0.5509545287832014,0.5760901835454748,0.5824493787173639,0.573058616272782,0.5474678913368527,0.5409404463318233,0.613023981061015,0.5899060439341193,0.5188278731975051,0.45751369999381697,0.39261828789470177,0.33245764562424784,0.2817431261264598,0.22020702712296658,0.1550012771418836,0.09266186315204061,0.03343802244559768,0.0,0.01381617193837048,0.0698204064776542,0.13902771141749493,0.20771504237536775,0.27612779371002083,0.3424966196324599,0.41139679020176545,0.4768470196797867,0.5205974078730542,0.5513040538807974,0.5754276215430065,0.5830617720530198,0.5806130159266101,0.5833956555650512,0.5625933401552452,0.52010717617647,0.49822073935586597,0.5197466741478756,0.559562119064035,0.5905257486862807,0.5871456695450636,0.57949658920764,0.5362875378962857,0.47527872893302736,0.497203439971299,0.5882085138818629,0.6163420666216279,0.5522824890558022,0.4856133440067014,0.4217632249309331,0.362351462601777,0.3067332002015968,0.24629293385640527,0.18337944514979987,0.1169314617113848,0.06779374758502366,0.06449629327689421,0.10434722191810364,0.16554478752882806,0.23688135866088422,0.30713191232978754,0.3701101185082567,0.4329458159013899,0.4984768537226947,0.5543990364051592,0.5825385517644739,0.6003725856999707,0.6208960582858121,0.6269245684224731,0.5799907713649326,0.5427921585265485,0.5406982736509167,0.5756243276545241,0.6037993324915141,0.6098358902391212,0.6126578584796778,0.5805531369144965,0.6114748220707147,0.678361351796321,0.7680432604172698,0.7647116504387148,0.680363120958926,0.6053204271569779,0.5332389990434636,0.462333773255043,0.39624238297394965,0.3346894086540042,0.2829022157177772,0.22290327239670327,0.1543386014889112,0.09640400864495069,0.05072172706399947,0.0482340337207694,0.09334996705839305,0.152885698353314,0.22618815995091013,0.29338440198521787,0.3603351826541876,0.4279841455348452,0.49365768436255997,0.5458793343028872,0.5722565527324381,0.597670617714513,0.6022927101814364,0.6075094532806709,0.6080063162978357,0.6045551982368618,0.573575827593445,0.5495500476356436,0.5390669752172041,0.5589583991029696,0.5966887074948681,0.6149880882904213,0.6078750217090934,0.6109709823789784,0.642004528389956,0.6857492796157414,0.6208942289186858,0.5463484241540575,0.4839226725586905,0.4182952226097727,0.3661684312783493,MI
0.638133332107643,0.6826528041783231,0.7156521107679312,0.7362012710588872,0.7180971659521802,0.6379506850691565,0.5363535303244427,0.5529242323694463,0.6667253176793828,0.780432554773856,0.9053190754209393,1.0,0.9832024011260101,0.9178863743571801,0.8750307322845252,0.8914544134204969,0.8864513059274852,0.8445035303526605,0.861293581671811,0.8570473173782229,0.8492174946529292,0.8515358997553224,0.8504135461889257,0.8380669967610332,0.8238113515356464,0.8226787678068819,0.822678231017588,0.822678231017588,0.8224471286383137,0.8122518286039022,0.8030612011249447,0.8029663062891221,0.8097404757338889,0.8221723957555178,0.8228814272829634,0.8326339344284799,0.8375614426533278,0.8038010899882173,0.7456161071624381,0.6684092119436551,0.5817118859583359,0.49454328666923075,0.41228940353335064,0.39495254891264153,0.44523966770828105,0.5014618278155063,0.5541180413366775,0.608062750943041,0.6543741311038902,0.6808379806665039,0.7021164448859816,0.6995275231061675,0.649606834349342,0.5515691726881684,0.48029967472165724,0.5651092861102529,0.6786987668595179,0.7834986798871175,0.8760531909422107,0.9615623781135412,0.9375409374561463,0.8704854407050719,0.8465996719924123,0.8692338568363414,0.843288144137734,0.807190310223239,0.8022528214107063,0.7892939872096392,0.7831713038372095,0.7831536509391137,0.787852536902788,0.7980720144617774,0.7965472504927162,0.801072236621259,0.7973792019374573,0.8053907138670855,0.8204847916428264,0.8226741959467345,0.822678231017588,0.8226782941692701,0.8232472210618211,0.8356606708157508,0.8297379000348291,0.7824277853552504,0.7155948634938727,0.6372673158407394,0.548876130537602,0.455012428932831,0.3783017914335005,0.3183536541274843,0.3422512281794421,0.3995013134066907,0.4500516593252386,0.5075951907323906,0.5373662774348538,0.5744484645549965,0.6030783266239008,0.6184203889618765,0.5905453805644201,0.5093455712300399,0.40959374152713757,0.40677077608739287,0.5161675522473335,0.6365298491265885,0.748339058801553,0.8409563721218567,0.8201669512153007,0.7533673144054069,0.7160522071703204,0.7025940171795844,0.6737060098571144,0.6426905322707639,0.6381185715240547,0.592986674012931,0.5139092940769756,0.3929858400531665,0.27020948348826046,0.19999998104583971,0.20848112517073325,0.2869663211299103,0.41116759327738484,0.5261209736663135,0.5560355501264302,0.4712762006079738,0.3465535555938324,0.23527336264051524,0.19591931042579924,0.21751032916146062,0.3125334038841192,0.437739573034011,0.5415099289213177,0.5819964499063177,0.6304768190168448,0.6401303348325404,0.6522847424040332,0.689910210061528,0.6975238137706139,0.5967807012041266,0.4804429780664332,0.3569825988589135,0.24866674538283284,0.15336106630610047,0.040780787392675766,0.0,0.08410767533211194,0.1982239803888608,0.30908929081683434,0.4245414736401911,0.5229979501016881,0.5532195330596945,0.5312146004111251,0.4922142261046023,0.4649049040873261,0.409768037436689,0.35745792967087464,0.30356108731724873,0.2543097770853109,0.25423060790088137,0.30752120944991823,0.3902442905157928,0.4700504995365664,0.5612842350459233,0.645723844254058,0.7194466083487443,0.7701272591210961,0.7742673762091732,0.7620324933164109,0.7642915898409011,0.7570644003254805,0.7619543133984741,0.7622975473942923,0.7560042150560289,0.745417432021322,0.7423881521805651,0.7441381839583121,0.7236470708613867,0.7349842120035239,0.7344628037078778,0.7288013487764111,0.7354365901395066,0.7391005336258134,0.7483478818082898,0.7423509747708463,0.7746052316639083,0.7932522824194841,0.7819621555891061,0.8063466910701709,0.8213974958530978,0.7245653602264994,0.5992680003231023,0.47328207262954924,0.3521482409932708,0.24020875378653672,0.12694539094593527,0.07750936817624021,0.15410391979087068,0.26522246797794047,0.38120009217795525,0.49198205114351445,0.596123162460036,0.6356029200551059,0.6297866387284636,0.6000892959158479,0.5506524317315336,0.4980878093141561,0.4405109324472898,0.3891383327319464,0.3387866545734939,0.3260643710624218,0.37083024429411937,0.4474998989094803,0.5312852572830615,0.6173856738319006,0.6984793815455217,0.761071593017359,0.7839089059947693,0.7752422366668319,0.7629804970799667,0.7555270993032899,0.7554458238430608,0.7554458238430608,0.7554471570034633,0.7569766260091932,0.7714814823752572,0.767518321173021,0.7690359043724411,0.7751678526682992,0.7754920410914012,0.7860441499165645,0.7948664119682638,0.7949940986712805,0.7942010902213514,0.7735553285560877,0.7760544222006689,0.8210157990298916,0.8143715572870329,0.8138961995864089,0.8437341118734918,0.8586365925151713,0.7634768071371263,0.6469702353947797,0.5322250542256262,0.4072989939341616,0.294603943798605,0.17529486752210666,0.09809707191545858,0.1583157460232414,0.2679684102406563,0.3830351088589783,0.49361858133258263,0.6018063523136656,0.6666135649062825,0.6564788902064769,0.617535572836525,0.5704959040838293,MI
0.6560135501772351,0.6474682274432655,0.669457010576477,0.6887729887126635,0.7007024020835129,0.70988664745538,0.7278764839069316,0.7340955370787663,0.756298565158668,0.7960002175246208,0.8525203588799886,0.8896123808011964,0.8778410213575758,0.7987461019816617,0.7021669588919419,0.5939255537898713,0.4809098454888039,0.3787289391983695,0.26405121861447434,0.16389059302176756,0.10636444495488329,0.12230850311882024,0.1593956151407694,0.20158438431392378,0.2390375387726511,0.2626992588195485,0.27961855882242315,0.30383869211686454,0.3293398716210372,0.3301534232599552,0.2706031064475498,0.1976238506498751,0.23460138682952625,0.3379297499209275,0.4468072112017536,0.5542141191263377,0.6597590231472483,0.7456111822993337,0.730244595434216,0.6364301827084651,0.5421715222709755,0.47312766377720505,0.48347191222269936,0.49829497910142617,0.5042244784563548,0.5047225659944474,0.4969540554175982,0.505519930783429,0.5351042732215983,0.547073820426955,0.550763804436349,0.5477451612984154,0.5359766766303435,0.520628483275976,0.5088968827697182,0.49781435300409216,0.46826022485795127,0.40966288885064905,0.3468492655333604,0.29333752281788783,0.29438668298662707,0.3338330249233268,0.38263350054203027,0.433679719587579,0.4818860951293886,0.5289026296965456,0.5754981124114682,0.6149172288562434,0.6573339357163497,0.6707704797593168,0.6513534352560963,0.5789531238458676,0.5592938870940207,0.6474800781012187,0.7604637915468024,0.8626091026025335,0.9651570424769522,1.0,0.9268691252458785,0.8309142999133883,0.7703674946069632,0.7537352452287953,0.7379206777041847,0.7397136085887399,0.7264314628398463,0.7022407804449995,0.701655861832128,0.7169003591360101,0.7100727781447613,0.6979109538576123,0.6489720568032133,0.6195706959252831,0.611507526966895,0.5949311261735315,0.5838396311008256,0.561332949080577,0.5144489193666395,0.4440110193795648,0.37360954713810557,0.3101628281875328,0.2984305752263947,0.33076936142239566,0.3759940345194277,0.4154165243699781,0.4487772691390801,0.46064368635090736,0.4649996091452713,0.48489519175528706,0.4823951225710914,0.4321966473561605,0.3570260492738693,0.4043398565792491,0.5150644679948462,0.6172321281099356,0.7285813988709249,0.8234059511490033,0.8471936291648126,0.7757238318941435,0.6840347264824889,0.6621941392586739,0.6533314256194962,0.640591852924568,0.6310911341742496,0.6121533624835225,0.5900172525448024,0.6116004805497872,0.6301867474270102,0.6091657202756839,0.557787113873069,0.5349314363730566,0.5330510499365011,0.5199882161064817,0.5350645484089673,0.5492153394109605,0.572271598551318,0.5836672246352372,0.5707411017169925,0.5917025043200224,0.6499149937524304,0.598790611868806,0.49551744226889083,0.38604511144260023,0.2793390200026553,0.18272988184143024,0.14581974203712056,0.2115261755562452,0.3068921453723652,0.38325468508703864,0.4050092890210646,0.38651652280410875,0.3878291255436892,0.3904259260698777,0.3564309427225134,0.3174645685509403,0.2736236382833983,0.23370518177919752,0.2083875668180344,0.22938947246676467,0.2844416289177749,0.35259435543381823,0.4270912190734726,0.4733084269670953,0.49308863552598936,0.5088242750060763,0.5212544851630008,0.5373416548595884,0.5853542887261534,0.6217886377285979,0.627484924661557,0.622212230954017,0.6110463107901327,0.628400817951011,0.6434038076328172,0.6472534302110717,0.6690742676170762,0.6869691618662301,0.6949951622954482,0.7437174162292592,0.7711506238645764,0.6677506741323298,0.5562764453043854,0.4547275202789147,0.36551760251240806,0.36141754432054096,0.4433099817948354,0.5302620534511426,0.5809329778918024,0.5692854854740665,0.5290969614652794,0.4891646424946514,0.45258940744385123,0.3987598114744966,0.34552020406817974,0.29556380290114914,0.25148884879314437,0.21342824216983347,0.19485883053072683,0.2244701316379647,0.2777227844655754,0.3402518532261154,0.3992586734981476,0.420226949671191,0.43331499988108035,0.43993404192081176,0.4518092156959366,0.4459232568012861,0.4613200292190762,0.45544001051447003,0.4250771806993572,0.4250722874562407,0.42727284404477217,0.4281401993308971,0.42275414739842443,0.4168802739715254,0.4028569123574819,0.42873823791149235,0.48343156340166216,0.43119997064608473,0.3170763518518731,0.2139802235187518,0.10618181251352743,0.014590705353089817,0.0,0.07853855594351256,0.17307847672690313,0.24088985434976173,0.24053560670089436,0.21147927805924338,0.19848544861643092,0.17227985297178972,0.13688603827519108,0.1036460572083322,0.07638127323762367,0.04129914963351755,0.0339322079160751,0.06727075560121554,0.14221319588211623,0.24637597652772003,0.36264293527274916,0.47914341257722404,0.5915716999254701,0.6936254196122138,0.7854389821878298,0.7909715168085363,0.7430126373541648,0.6865594185111603,0.6602293927616656,0.6363225096678113,0.636923125830962,0.6222901074507443,0.6069587087844326,0.597802973239995,0.5752593253866745,0.5576545660397483,0.5835218674459615,MI
0.5631169086141634,0.6132883147638886,0.6566256621737692,0.6982131111964582,0.7483686565155292,0.7845810308573329,0.8137127332614327,0.8450700926544359,0.8311716504183826,0.8588941395643239,0.7998712954763887,0.7001776081173654,0.5762793730095002,0.461719326803542,0.41630230228017684,0.516853145707409,0.6197381227291014,0.7245463123944864,0.7614761344854708,0.651745596189583,0.6051892375060257,0.6230765198582526,0.6407037645169513,0.6032546470181739,0.6013941893181656,0.6593681499171211,0.6640906611711639,0.6815586128555049,0.646120924105178,0.6487495766176945,0.660948983446966,0.6631797174935636,0.6859628138813791,0.6856230609434544,0.6708477785038403,0.66878757655366,0.6494514685170092,0.6723748998704151,0.7173918791253264,0.7731369275756412,0.8265267047085016,0.8745351980766731,0.8746379234380708,0.8610478533855552,0.881267172147993,0.8944411952600158,0.8931126620115108,0.8340959395068133,0.8258632376071207,0.7686394052712844,0.6635722896507437,0.5601662352618728,0.44256962124783517,0.4262147662632527,0.5707433748013022,0.6830740158270538,0.797545733309641,0.8883383010131132,0.8376971862178566,0.7825201002736408,0.755224774467254,0.7743130300055796,0.7883751498608813,0.7001804047637261,0.6641197784272022,0.6989430586480943,0.6988796243796909,0.6774802422549406,0.6844499543354488,0.7530918726019245,0.7710970665582844,0.7769266282461791,0.7481834982844973,0.6579709427704481,0.5923727541135229,0.5635070824166757,0.5845080613930875,0.6565058999634887,0.7302070923058901,0.8138603502148181,0.8875632131619389,0.9384084571451687,0.9766593664095371,0.9945509180280032,1.0,0.9724588967486953,0.9227232302756958,0.826932137034512,0.7945418537933691,0.7734690180260531,0.6674088495864101,0.5551765703251119,0.44283812796638156,0.35069801594498173,0.42011591442243024,0.5419402964254703,0.64308621509816,0.7571999347410028,0.7856580247162555,0.7760966324204599,0.8039666731158253,0.7904783826116217,0.7785102027779356,0.7134036267695265,0.6930216307990795,0.7569057817128266,0.7877918559772832,0.7713053768377849,0.7500346683660855,0.738726303672232,0.7004194052018731,0.6869447256979937,0.6856521992044051,0.6808726254735129,0.6864881131770089,0.640940704837142,0.6200066155033834,0.6223124000128619,0.6793521507162072,0.7395267839083202,0.8056785757811413,0.8714566345167141,0.9149760514281269,0.9084418657272071,0.8461756294402658,0.772917946806138,0.7552292361725668,0.7353028533783581,0.6843646711594387,0.6101236091911231,0.5452458747100541,0.4852258770004383,0.4505899232380344,0.4643684934918646,0.5121040816022013,0.5237398967159281,0.537813072386272,0.5356530443482024,0.5772268069756503,0.5895140972143773,0.6112357072400085,0.6481419295191095,0.6269390509831707,0.578293554554425,0.540835896395869,0.5515889375607852,0.604588021976955,0.6449692397789795,0.6378507203069201,0.6124930635653474,0.5825314608225769,0.5249472211566442,0.40663818758561643,0.27103368965109187,0.13020363357138898,0.025478023617028,0.06417342890186184,0.21698197208281922,0.35574110400084624,0.4573888653855347,0.5668781965933434,0.615836204782668,0.6641403225877411,0.7561258332060392,0.8200801778455409,0.8361968999903207,0.8325094823222505,0.7964233604589506,0.7363017036144042,0.6521704634464864,0.5786870409517135,0.5060783551397083,0.43511780719594473,0.41094150444368704,0.4404668613321352,0.48136386358896655,0.5551241235003666,0.6231583587185856,0.6259746951900924,0.5966701528988949,0.5419343578175999,0.5269980684247342,0.5328106726732624,0.5464661336996102,0.5246039193442904,0.5091924033431932,0.5610961480478984,0.614761420171936,0.5948034779633291,0.6396391519647997,0.6723850361414412,0.6502259442091205,0.5586568607435183,0.4276009675454757,0.28668449506938476,0.13744419611663883,0.011498395269742723,0.032871968072989866,0.1639143569366146,0.3087762722443701,0.45307071419935596,0.55151030969565,0.6535792023105005,0.6488034730345538,0.6944061427802088,0.7428471938896042,0.7240307038248739,0.6816791413519168,0.7129639002073676,0.7217973112496079,0.6794746955017761,0.6581651886128723,0.5913351547880819,0.5506874668924775,0.5169784138101541,0.5015995714791295,0.5243311726868827,0.546144433268922,0.532861185190308,0.511880950964307,0.5195699420403459,0.5043710709608717,0.5194656824859729,0.5442923239700015,0.5261831231980896,0.4803934157685097,0.40526915984861045,0.425906079018044,0.49899888812042814,0.5029698931673554,0.47298888732895694,0.449635328922235,0.40389459988507603,0.43314257363489705,0.5086634756515886,0.43683567119800504,0.32436027683235213,0.2054834873482303,0.0621612503249267,0.0,0.08804065506115233,0.23105412384651736,0.38016202639074503,0.5155149016119207,0.6384117163336089,0.6786160397950036,0.6881316996326667,0.6832589869437928,0.6541323644798736,0.6374681211421054,0.6047896378787261,0.549600852845936,0.5104001117298669,0.4616084759856003,0.3998897960903225,MI
0.638133332107643,0.6826528041783231,0.7156521107679312,0.7362012710588872,0.7180971659521802,0.6379506850691565,0.5363535303244427,0.5529242323694463,0.6667253176793828,0.780432554773856,0.9053190754209393,1.0,0.9832024011260101,0.9178863743571801,0.8750307322845252,0.8914544134204969,0.8864513059274852,0.8445035303526605,0.861293581671811,0.8570473173782229,0.8492174946529292,0.8515358997553224,0.8504135461889257,0.8380669967610332,0.8238113515356464,0.8226787678068819,0.822678231017588,0.822678231017588,0.8224471286383137,0.8122518286039022,0.8030612011249447,0.8029663062891221,0.8097404757338889,0.8221723957555178,0.8228814272829634,0.8326339344284799,0.8375614426533278,0.8038010899882173,0.7456161071624381,0.6684092119436551,0.5817118859583359,0.49454328666923075,0.41228940353335064,0.39495254891264153,0.44523966770828105,0.5014618278155063,0.5541180413366775,0.608062750943041,0.6543741311038902,0.6808379806665039,0.7021164448859816,0.6995275231061675,0.649606834349342,0.5515691726881684,0.48029967472165724,0.5651092861102529,0.6786987668595179,0.7834986798871175,0.8760531909422107,0.9615623781135412,0.9375409374561463,0.8704854407050719,0.8465996719924123,0.8692338568363414,0.843288144137734,0.807190310223239,0.8022528214107063,0.7892939872096392,0.7831713038372095,0.7831536509391137,0.787852536902788,0.7980720144617774,0.7965472504927162,0.801072236621259,0.7973792019374573,0.8053907138670855,0.8204847916428264,0.8226741959467345,0.822678231017588,0.8226782941692701,0.8232472210618211,0.8356606708157508,0.8297379000348291,0.7824277853552504,0.7155948634938727,0.6372673158407394,0.548876130537602,0.455012428932831,0.3783017914335005,0.3183536541274843,0.3422512281794421,0.3995013134066907,0.4500516593252386,0.5075951907323906,0.5373662774348538,0.5744484645549965,0.6030783266239008,0.6184203889618765,0.5905453805644201,0.5093455712300399,0.40959374152713757,0.40677077608739287,0.5161675522473335,0.6365298491265885,0.748339058801553,0.8409563721218567,0.8201669512153007,0.7533673144054069,0.7160522071703204,0.7025940171795844,0.6737060098571144,0.6426905322707639,0.6381185715240547,0.592986674012931,0.5139092940769756,0.3929858400531665,0.27020948348826046,0.19999998104583971,0.20848112517073325,0.2869663211299103,0.41116759327738484,0.5261209736663135,0.5560355501264302,0.4712762006079738,0.3465535555938324,0.23527336264051524,0.19591931042579924,0.21751032916146062,0.3125334038841192,0.437739573034011,0.5415099289213177,0.5819964499063177,0.6304768190168448,0.6401303348325404,0.6522847424040332,0.689910210061528,0.6975238137706139,0.5967807012041266,0.4804429780664332,0.3569825988589135,0.24866674538283284,0.15336106630610047,0.040780787392675766,0.0,0.08410767533211194,0.1982239803888608,0.30908929081683434,0.4245414736401911,0.5229979501016881,0.5532195330596945,0.5312146004111251,0.4922142261046023,0.4649049040873261,0.409768037436689,0.35745792967087464,0.30356108731724873,0.2543097770853109,0.25423060790088137,0.30752120944991823,0.3902442905157928,0.4700504995365664,0.5612842350459233,0.645723844254058,0.7194466083487443,0.7701272591210961,0.7742673762091732,0.7620324933164109,0.7642915898409011,0.7570644003254805,0.7619543133984741,0.7622975473942923,0.7560042150560289,0.745417432021322,0.7423881521805651,0.7441381839583121,0.7236470708613867,0.7349842120035239,0.7344628037078778,0.7288013487764111,0.7354365901395066,0.7391005336258134,0.7483478818082898,0.7423509747708463,0.7746052316639083,0.7932522824194841,0.7819621555891061,0.8063466910701709,0.8213974958530978,0.7245653602264994,0.5992680003231023,0.47328207262954924,0.3521482409932708,0.24020875378653672,0.12694539094593527,0.07750936817624021,0.15410391979087068,0.26522246797794047,0.38120009217795525,0.49198205114351445,0.596123162460036,0.6356029200551059,0.6297866387284636,0.6000892959158479,0.5506524317315336,0.4980878093141561,0.4405109324472898,0.3891383327319464,0.3387866545734939,0.3260643710624218,0.37083024429411937,0.4474998989094803,0.5312852572830615,0.6173856738319006,0.6984793815455217,0.761071593017359,0.7839089059947693,0.7752422366668319,0.7629804970799667,0.7555270993032899,0.7554458238430608,0.7554458238430608,0.7554471570034633,0.7569766260091932,0.7714814823752572,0.767518321173021,0.7690359043724411,0.7751678526682992,0.7754920410914012,0.7860441499165645,0.7948664119682638,0.7949940986712805,0.7942010902213514,0.7735553285560877,0.7760544222006689,0.8210157990298916,0.8143715572870329,0.8138961995864089,0.8437341118734918,0.8586365925151713,0.7634768071371263,0.6469702353947797,0.5322250542256262,0.4072989939341616,0.294603943798605,0.17529486752210666,0.09809707191545858,0.1583157460232414,0.2679684102406563,0.3830351088589783,0.49361858133258263,0.6018063523136656,0.6666135649062825,0.6564788902064769,0.617535572836525,0.5704959040838293,MI
0.5631169086141634,0.6132883147638886,0.6566256621737692,0.6982131111964582,0.7483686565155292,0.7845810308573329,0.8137127332614327,0.8450700926544359,0.8311716504183826,0.8588941395643239,0.7998712954763887,0.7001776081173654,0.5762793730095002,0.461719326803542,0.41630230228017684,0.516853145707409,0.6197381227291014,0.7245463123944864,0.7614761344854708,0.651745596189583,0.6051892375060257,0.6230765198582526,0.6407037645169513,0.6032546470181739,0.6013941893181656,0.6593681499171211,0.6640906611711639,0.6815586128555049,0.646120924105178,0.6487495766176945,0.660948983446966,0.6631797174935636,0.6859628138813791,0.6856230609434544,0.6708477785038403,0.66878757655366,0.6494514685170092,0.6723748998704151,0.7173918791253264,0.7731369275756412,0.8265267047085016,0.8745351980766731,0.8746379234380708,0.8610478533855552,0.881267172147993,0.8944411952600158,0.8931126620115108,0.8340959395068133,0.8258632376071207,0.7686394052712844,0.6635722896507437,0.5601662352618728,0.44256962124783517,0.4262147662632527,0.5707433748013022,0.6830740158270538,0.797545733309641,0.8883383010131132,0.8376971862178566,0.7825201002736408,0.755224774467254,0.7743130300055796,0.7883751498608813,0.7001804047637261,0.6641197784272022,0.6989430586480943,0.6988796243796909,0.6774802422549406,0.6844499543354488,0.7530918726019245,0.7710970665582844,0.7769266282461791,0.7481834982844973,0.6579709427704481,0.5923727541135229,0.5635070824166757,0.5845080613930875,0.6565058999634887,0.7302070923058901,0.8138603502148181,0.8875632131619389,0.9384084571451687,0.9766593664095371,0.9945509180280032,1.0,0.9724588967486953,0.9227232302756958,0.826932137034512,0.7945418537933691,0.7734690180260531,0.6674088495864101,0.5551765703251119,0.44283812796638156,0.35069801594498173,0.42011591442243024,0.5419402964254703,0.64308621509816,0.7571999347410028,0.7856580247162555,0.7760966324204599,0.8039666731158253,0.7904783826116217,0.7785102027779356,0.7134036267695265,0.6930216307990795,0.7569057817128266,0.7877918559772832,0.7713053768377849,0.7500346683660855,0.738726303672232,0.7004194052018731,0.6869447256979937,0.6856521992044051,0.6808726254735129,0.6864881131770089,0.640940704837142,0.6200066155033834,0.6223124000128619,0.6793521507162072,0.7395267839083202,0.8056785757811413,0.8714566345167141,0.9149760514281269,0.9084418657272071,0.8461756294402658,0.772917946806138,0.7552292361725668,0.7353028533783581,0.6843646711594387,0.6101236091911231,0.5452458747100541,0.4852258770004383,0.4505899232380344,0.4643684934918646,0.5121040816022013,0.5237398967159281,0.537813072386272,0.5356530443482024,0.5772268069756503,0.5895140972143773,0.6112357072400085,0.6481419295191095,0.6269390509831707,0.578293554554425,0.540835896395869,0.5515889375607852,0.604588021976955,0.6449692397789795,0.6378507203069201,0.6124930635653474,0.5825314608225769,0.5249472211566442,0.40663818758561643,0.27103368965109187,0.13020363357138898,0.025478023617028,0.06417342890186184,0.21698197208281922,0.35574110400084624,0.4573888653855347,0.5668781965933434,0.615836204782668,0.6641403225877411,0.7561258332060392,0.8200801778455409,0.8361968999903207,0.8325094823222505,0.7964233604589506,0.7363017036144042,0.6521704634464864,0.5786870409517135,0.5060783551397083,0.43511780719594473,0.41094150444368704,0.4404668613321352,0.48136386358896655,0.5551241235003666,0.6231583587185856,0.6259746951900924,0.5966701528988949,0.5419343578175999,0.5269980684247342,0.5328106726732624,0.5464661336996102,0.5246039193442904,0.5091924033431932,0.5610961480478984,0.614761420171936,0.5948034779633291,0.6396391519647997,0.6723850361414412,0.6502259442091205,0.5586568607435183,0.4276009675454757,0.28668449506938476,0.13744419611663883,0.011498395269742723,0.032871968072989866,0.1639143569366146,0.3087762722443701,0.45307071419935596,0.55151030969565,0.6535792023105005,0.6488034730345538,0.6944061427802088,0.7428471938896042,0.7240307038248739,0.6816791413519168,0.7129639002073676,0.7217973112496079,0.6794746955017761,0.6581651886128723,0.5913351547880819,0.5506874668924775,0.5169784138101541,0.5015995714791295,0.5243311726868827,0.546144433268922,0.532861185190308,0.511880950964307,0.5195699420403459,0.5043710709608717,0.5194656824859729,0.5442923239700015,0.5261831231980896,0.4803934157685097,0.40526915984861045,0.425906079018044,0.49899888812042814,0.5029698931673554,0.47298888732895694,0.449635328922235,0.40389459988507603,0.43314257363489705,0.5086634756515886,0.43683567119800504,0.32436027683235213,0.2054834873482303,0.0621612503249267,0.0,0.08804065506115233,0.23105412384651736,0.38016202639074503,0.5155149016119207,0.6384117163336089,0.6786160397950036,0.6881316996326667,0.6832589869437928,0.6541323644798736,0.6374681211421054,0.6047896378787261,0.549600852845936,0.5104001117298669,0.4616084759856003,0.3998897960903225,MI
0.5263460166158662,0.5098693999502033,0.47665729473240903,0.40569866546151445,0.318730627606743,0.2767433612046215,0.3413093710500892,0.399076864476124,0.4091083854091897,0.40919999257960615,0.40775349884070833,0.4020332257160173,0.47225626188302083,0.570354136774947,0.6681594326526645,0.7712863853136427,0.8683528624498313,0.9539480076001281,1.0,0.97273051413366,0.9015803015714994,0.8372391536017232,0.7847640281368138,0.7219621620821761,0.6283603071802326,0.5432367954859889,0.48497294684996684,0.5627839753747024,0.6122052094318411,0.5469573679168414,0.4767732607892192,0.5072460540299719,0.5384422180224542,0.5173458635462005,0.48478164947664437,0.42346110777532786,0.33949648334697446,0.31526451075276407,0.37819783494737,0.4248839396621542,0.4451564969394233,0.4361418413128675,0.4167906756270816,0.3997572010576227,0.4559480070780846,0.5586575789231509,0.6665368008942458,0.7705636363701349,0.8677653084883619,0.9476774436957234,0.9780048870375806,0.9412302884112931,0.8854354109581473,0.8214278240404327,0.7735591207780259,0.698679070038533,0.611536968020546,0.5493722008104052,0.6103532500243665,0.6653994943218908,0.5958333474180604,0.49597145841008894,0.4351306007526201,0.4324540137427326,0.3933171563142923,0.3493162250879398,0.2900439419127623,0.2266722456309851,0.14654792661240412,0.09096932345604403,0.1417837100928372,0.19795199086905058,0.2393965538603302,0.2833141299821649,0.35599948894968625,0.4294907141980784,0.4412917191820167,0.46740385472189105,0.556395988755717,0.6537863845699219,0.7568380796497851,0.8622827971764591,0.9428989544358051,0.9812175268793788,0.9526954881948408,0.8951819659060067,0.8322609652546173,0.7791824568378813,0.719003204068851,0.6250637691483822,0.5699741085005479,0.6438996130801264,0.687487449314109,0.6107567070349735,0.5185684472425227,0.5160233592889507,0.5185081792182786,0.5023566669688946,0.46248905754012526,0.4104575417085945,0.33189178537019215,0.2738412661433114,0.3117360945009202,0.36356049573913474,0.37244616521567053,0.3691120376227808,0.35854152922656235,0.34938218864543913,0.4028039964852761,0.49775716893666244,0.5976419443111509,0.6993267048971314,0.7959442486526709,0.8932237960102003,0.9568011383023478,0.9545837436088038,0.9068188360741893,0.8516530781179621,0.8034544745566325,0.7344179057651283,0.6449116812457074,0.5639572322564184,0.5882669417451178,0.6324191831055441,0.573508030143397,0.5376349134661385,0.5202861599154938,0.4410357203780073,0.40106891587786375,0.473976036522727,0.4628290221459941,0.41822328359070715,0.4760084876644326,0.5575704883957049,0.6468116656422049,0.7326092513867568,0.7884939777785016,0.8365754455451091,0.8929152520996073,0.8974765941526175,0.83375000635173,0.7384337212141139,0.630098094474854,0.525644742821322,0.43016638797282214,0.3406483670330176,0.28823268394426727,0.2820844689143258,0.30069272460997265,0.3013845545889118,0.28935571400793236,0.236337783206356,0.18057426847052316,0.19874844176105277,0.2800077760156796,0.3606883004219621,0.4187777927523655,0.4545435561083253,0.4445707592055763,0.37820835506056305,0.380372491170371,0.4765730695515753,0.504523331858918,0.4888339921231397,0.547717306638762,0.6303165601022549,0.7085697450273418,0.7662822533745053,0.819041648535463,0.8838272044473552,0.916827610554702,0.85963731627887,0.7711463559165694,0.6696770498257161,0.5600896561431248,0.4625957274156276,0.3881465776950086,0.3735883648371576,0.34567192445293715,0.27600583202696827,0.21556263995466596,0.17534102396917017,0.130629379780264,0.06157268593821996,0.0,0.01740158137330905,0.09763709906327112,0.1819450442130397,0.2463515011088626,0.3039703256302526,0.34666171507402854,0.3501212313621642,0.31287486965498124,0.3752834625822907,0.4720966257952375,0.4687592428811591,0.4768357576408082,0.552700892572056,0.6476585740978176,0.7202716267717508,0.7669421535477277,0.8280678187995427,0.8871816472028131,0.8906612059271692,0.8097291387657775,0.711619910528591,0.6077712529884574,0.5096066434945246,0.4118925470543049,0.34110861028252293,0.33248423823547535,0.36474737673863844,0.37636604527985895,0.3738862691176563,0.3502510453807255,0.2792378703866132,0.2184859428658812,0.24081217804898847,0.32380691191162514,0.39773671978597447,0.44378767189697843,0.4511226808229143,0.4151569344691399,0.3173757939684192,0.2822940951775821,0.370499618394875,0.4640019029837701,0.42137206074692823,0.39557717554915817,0.4647018528341156,0.5547107593942529,0.6456270630087064,0.7243135570140327,0.7777163513015188,0.8373846296665755,0.9091224023425095,0.9180887175675436,0.836048354706663,0.7313299852526725,0.628199753079195,0.5289014510786219,0.43755376861093565,0.3595818944633913,0.3246065907051565,0.3351688176313403,0.34606495993019637,0.34126136340492597,0.3222169127816765,0.2526794899988447,0.19158394888212538,0.2216069045777358,0.30899128076564475,0.39835104035249547,0.4447335683654954,0.46055471017275185,MI
0.25700578407903674,0.18777785436360617,0.17224601206770007,0.24208697024138104,0.3477269465634434,0.47614508489463514,0.5968516896610598,0.7010102004879073,0.7938469021934589,0.8908495576034561,0.95582480897159,0.9867228699568358,1.0,0.9420934131192054,0.8823959215319919,0.8151362605399717,0.7658957838789728,0.7226345364548514,0.6709031443859033,0.6774638960753627,0.805946615444225,0.9270888871105551,0.8679220928178282,0.7125533963617503,0.537124287527063,0.3754343285976258,0.2943143020305561,0.3376952154431079,0.3537686224417058,0.3849009330283568,0.4322414784184092,0.4998394886608999,0.4423716066183898,0.3180900818028265,0.25948040728311916,0.2894439659793857,0.33722475862839296,0.34258367434915105,0.3427003292197348,0.35569987726302443,0.3897829312821699,0.40137692696238503,0.43665943921673556,0.4231428321870272,0.4380755984027287,0.4049543330529044,0.40961580704677747,0.3847479087012209,0.3742253379965801,0.34660799608990356,0.3425990433575157,0.34259270103507067,0.34050598929818054,0.31278910535704796,0.26775110962971826,0.20080454006968296,0.17012387673202767,0.24120046735432243,0.36476271223068313,0.48161212008618737,0.5998833822340695,0.6931199863119026,0.803641065058307,0.9079985851534875,0.9679823375578742,0.9574430008483752,0.9119204028988035,0.8640990649741438,0.778936032251897,0.7209059023785187,0.6971027897873299,0.6485673748773246,0.6140628205781917,0.6227145363206255,0.7146557162094576,0.8717505642602008,0.966829683992942,0.8976848307783092,0.7386450757800658,0.5596592758178467,0.39534676792495116,0.26350125780519207,0.29875964541815314,0.3114657893732149,0.34197498035151064,0.3944134680745748,0.43865560797670433,0.3809991788325018,0.28762380305104696,0.30109080692543966,0.34058035944022524,0.3633819783050649,0.3444353562088409,0.35957209806306256,0.40626222020592007,0.4140425040918583,0.4053483804917972,0.4059810033403508,0.3869415162947796,0.3694165137260592,0.37781685736442583,0.3781628767852414,0.3627651389776627,0.34302429291914294,0.33870320956206523,0.31261433027659624,0.3324993559274647,0.3273658665957724,0.3161089404528328,0.26843006890138277,0.20648752258767544,0.14909103275422453,0.17624865673500167,0.27264639275090996,0.377122349286366,0.49966546478880414,0.6325553154077532,0.7321433160638051,0.8320245326874129,0.9061018501035232,0.9391237688247651,0.9137039380058356,0.849806558518444,0.8028896789639992,0.7405513319403472,0.6927536956781717,0.6586105799812829,0.6059794314465083,0.5637620156947092,0.47964148490024705,0.49335401538371304,0.5397453525547684,0.5871546753917656,0.6351138486294419,0.6900681742538444,0.7499096371231797,0.8035576945799203,0.814874175628125,0.7373040152403894,0.6424428239967854,0.5377852184154355,0.4161380020971972,0.28912613033067647,0.1723421560848326,0.0775836084064423,0.015122317503300842,0.04204327587977552,0.09860334461980003,0.15412008340817795,0.20062780463928576,0.21807732265934643,0.19601046978866865,0.2173116604469607,0.22146172232786565,0.2411280334138759,0.2565914553312352,0.2565110809403981,0.2415899838102904,0.2601843692455805,0.27175301666840124,0.29144762922208134,0.2924951674728753,0.2843441463084444,0.2491562769812088,0.23632788691115003,0.23879834155859125,0.24090662233390425,0.20435201475217823,0.17852952523192833,0.17264860557701844,0.25973128635496145,0.2999058255002547,0.24522976423363563,0.2206830943768443,0.1936721116760145,0.1375959421142836,0.08785519816967025,0.16838186043719006,0.3302305104807832,0.45676695614426865,0.4228733766180337,0.4669511014536383,0.5083214796120172,0.546709194857721,0.56288535406678,0.5964665017207649,0.6513310868586233,0.7246867090123246,0.7893650844483648,0.8324711981436703,0.8391398150201503,0.7939192369810311,0.6888088591442054,0.5828819979816169,0.4705835861793499,0.3530970970568079,0.23337130856555,0.13092816185901235,0.03397630042744115,0.0,0.06271992798780701,0.12633208745372304,0.19442383948032926,0.22061863438991214,0.22500959530513676,0.23316581934059588,0.23418374316476154,0.22822911232336107,0.2608847669745993,0.26528605462764343,0.2823518625769905,0.29457745772055954,0.3192813303387343,0.3071429995064827,0.3065286135362717,0.26643225955201455,0.2469488010945069,0.2223169113940724,0.22095989031263663,0.21285795092221615,0.19835691266175193,0.14366193183573017,0.13169349524549112,0.17374313729433855,0.28452733950013,0.3030432420797089,0.2609832506134353,0.25664505434917917,0.2390267148652656,0.156847681278796,0.09142308721641967,0.1633427155985343,0.31908615212513425,0.45585031106890384,0.4232743090454738,0.47751684994969423,0.5523533618076328,0.5990468064098549,0.6377039639795115,0.6865827791872645,0.7542711419622199,0.8040814540349226,0.8576914869105128,0.8762849872349143,0.81571927987655,0.7474847452635016,0.6449784501724389,0.5312878705007016,0.41503860953489546,0.29434699881729465,0.19533192736975646,0.08724215987933803,0.04459650361738099,0.06566062692016406,0.12262558732904338,MI
0.6560135501772351,0.6474682274432655,0.669457010576477,0.6887729887126635,0.7007024020835129,0.70988664745538,0.7278764839069316,0.7340955370787663,0.756298565158668,0.7960002175246208,0.8525203588799886,0.8896123808011964,0.8778410213575758,0.7987461019816617,0.7021669588919419,0.5939255537898713,0.4809098454888039,0.3787289391983695,0.26405121861447434,0.16389059302176756,0.10636444495488329,0.12230850311882024,0.1593956151407694,0.20158438431392378,0.2390375387726511,0.2626992588195485,0.27961855882242315,0.30383869211686454,0.3293398716210372,0.3301534232599552,0.2706031064475498,0.1976238506498751,0.23460138682952625,0.3379297499209275,0.4468072112017536,0.5542141191263377,0.6597590231472483,0.7456111822993337,0.730244595434216,0.6364301827084651,0.5421715222709755,0.47312766377720505,0.48347191222269936,0.49829497910142617,0.5042244784563548,0.5047225659944474,0.4969540554175982,0.505519930783429,0.5351042732215983,0.547073820426955,0.550763804436349,0.5477451612984154,0.5359766766303435,0.520628483275976,0.5088968827697182,0.49781435300409216,0.46826022485795127,0.40966288885064905,0.3468492655333604,0.29333752281788783,0.29438668298662707,0.3338330249233268,0.38263350054203027,0.433679719587579,0.4818860951293886,0.5289026296965456,0.5754981124114682,0.6149172288562434,0.6573339357163497,0.6707704797593168,0.6513534352560963,0.5789531238458676,0.5592938870940207,0.6474800781012187,0.7604637915468024,0.8626091026025335,0.9651570424769522,1.0,0.9268691252458785,0.8309142999133883,0.7703674946069632,0.7537352452287953,0.7379206777041847,0.7397136085887399,0.7264314628398463,0.7022407804449995,0.701655861832128,0.7169003591360101,0.7100727781447613,0.6979109538576123,0.6489720568032133,0.6195706959252831,0.611507526966895,0.5949311261735315,0.5838396311008256,0.561332949080577,0.5144489193666395,0.4440110193795648,0.37360954713810557,0.3101628281875328,0.2984305752263947,0.33076936142239566,0.3759940345194277,0.4154165243699781,0.4487772691390801,0.46064368635090736,0.4649996091452713,0.48489519175528706,0.4823951225710914,0.4321966473561605,0.3570260492738693,0.4043398565792491,0.5150644679948462,0.6172321281099356,0.7285813988709249,0.8234059511490033,0.8471936291648126,0.7757238318941435,0.6840347264824889,0.6621941392586739,0.6533314256194962,0.640591852924568,0.6310911341742496,0.6121533624835225,0.5900172525448024,0.6116004805497872,0.6301867474270102,0.6091657202756839,0.557787113873069,0.5349314363730566,0.5330510499365011,0.5199882161064817,0.5350645484089673,0.5492153394109605,0.572271598551318,0.5836672246352372,0.5707411017169925,0.5917025043200224,0.6499149937524304,0.598790611868806,0.49551744226889083,0.38604511144260023,0.2793390200026553,0.18272988184143024,0.14581974203712056,0.2115261755562452,0.3068921453723652,0.38325468508703864,0.4050092890210646,0.38651652280410875,0.3878291255436892,0.3904259260698777,0.3564309427225134,0.3174645685509403,0.2736236382833983,0.23370518177919752,0.2083875668180344,0.22938947246676467,0.2844416289177749,0.35259435543381823,0.4270912190734726,0.4733084269670953,0.49308863552598936,0.5088242750060763,0.5212544851630008,0.5373416548595884,0.5853542887261534,0.6217886377285979,0.627484924661557,0.622212230954017,0.6110463107901327,0.628400817951011,0.6434038076328172,0.6472534302110717,0.6690742676170762,0.6869691618662301,0.6949951622954482,0.7437174162292592,0.7711506238645764,0.6677506741323298,0.5562764453043854,0.4547275202789147,0.36551760251240806,0.36141754432054096,0.4433099817948354,0.5302620534511426,0.5809329778918024,0.5692854854740665,0.5290969614652794,0.4891646424946514,0.45258940744385123,0.3987598114744966,0.34552020406817974,0.29556380290114914,0.25148884879314437,0.21342824216983347,0.19485883053072683,0.2244701316379647,0.2777227844655754,0.3402518532261154,0.3992586734981476,0.420226949671191,0.43331499988108035,0.43993404192081176,0.4518092156959366,0.4459232568012861,0.4613200292190762,0.45544001051447003,0.4250771806993572,0.4250722874562407,0.42727284404477217,0.4281401993308971,0.42275414739842443,0.4168802739715254,0.4028569123574819,0.42873823791149235,0.48343156340166216,0.43119997064608473,0.3170763518518731,0.2139802235187518,0.10618181251352743,0.014590705353089817,0.0,0.07853855594351256,0.17307847672690313,0.24088985434976173,0.24053560670089436,0.21147927805924338,0.19848544861643092,0.17227985297178972,0.13688603827519108,0.1036460572083322,0.07638127323762367,0.04129914963351755,0.0339322079160751,0.06727075560121554,0.14221319588211623,0.24637597652772003,0.36264293527274916,0.47914341257722404,0.5915716999254701,0.6936254196122138,0.7854389821878298,0.7909715168085363,0.7430126373541648,0.6865594185111603,0.6602293927616656,0.6363225096678113,0.636923125830962,0.6222901074507443,0.6069587087844326,0.597802973239995,0.5752593253866745,0.5576545660397483,0.5835218674459615,MI
0.43418574591263615,0.4929228910790553,0.55979471401959,0.6356415173074208,0.72541385655792,0.8170522856854074,0.9041769848785128,0.9413236009024948,0.8758491259255792,0.7774038295743748,0.7048682123422092,0.6762125951143452,0.6649405373052126,0.6621397056898901,0.6417018963383383,0.6102575287078988,0.5972196883578922,0.6069557942156736,0.6451731140390471,0.6588869536206399,0.6549234765710847,0.6611497193472606,0.6590941799057315,0.6557221437595617,0.6321982991903197,0.6024175613713811,0.5687020708643364,0.5131116491240453,0.44803853536165517,0.3801976909408251,0.3116553449329744,0.23922299846533224,0.17433582182818919,0.11883653725783416,0.09988441356236621,0.14589840505804252,0.2060690922273103,0.27256364430801105,0.3355956552069579,0.38711540914544806,0.44295920163494773,0.5158474991620208,0.5910358309352535,0.6639392719086927,0.7447364250346353,0.8353771797909968,0.9249068902353115,0.9999999999999998,0.9869344300475229,0.9001743122410615,0.8094601208083418,0.7181976554875622,0.6661327866315225,0.6629114323664271,0.6571526820314906,0.6506956078536679,0.620226720965247,0.5863278668069067,0.600130048257997,0.6586241133345172,0.6802063259297275,0.6677548778218496,0.6523357205314924,0.6272409590880941,0.5979792931728263,0.5431254489064952,0.483346917560741,0.4206569972074392,0.35369837604414145,0.28341079089529475,0.21620843583917138,0.15279233854647756,0.11529934214551929,0.14416716997632206,0.2034772664536011,0.26789482304030865,0.32942309945357207,0.38480543692668623,0.43842001563898214,0.5075427769311853,0.5755842679742964,0.6488321648735031,0.7345229793612431,0.8182334097651471,0.8589859667273025,0.8027932810226621,0.7276828131356197,0.6479199548316117,0.6384895175161469,0.6494268579626608,0.6421837998017936,0.6437344457479564,0.6127935967329698,0.5760711705927022,0.5660081109128845,0.6046664359722389,0.6345703585117961,0.6346929815742588,0.6388395000356375,0.6257732603972956,0.6017612198404187,0.5718414198617177,0.5391614213753899,0.48216146636374346,0.4148522381709123,0.35260169677336717,0.28487428036697504,0.21319506483003114,0.1409003065839305,0.07851352187299732,0.04919098400062727,0.09653052146199537,0.15551032651210184,0.21732896529065293,0.28100875824489235,0.33910916266938096,0.3934273674652575,0.4509289559195466,0.518599930550202,0.5863309085173982,0.6628705254024332,0.7391565951428805,0.8198352874279176,0.8209693206936828,0.7359755364285141,0.6558754345669227,0.6357776277795095,0.6342185621801824,0.6268514372816403,0.6009895733069037,0.5657058336784828,0.5599950591063572,0.542317471311413,0.49760879928830026,0.5038721386057328,0.5509545287832014,0.5760901835454748,0.5824493787173639,0.573058616272782,0.5474678913368527,0.5409404463318233,0.613023981061015,0.5899060439341193,0.5188278731975051,0.45751369999381697,0.39261828789470177,0.33245764562424784,0.2817431261264598,0.22020702712296658,0.1550012771418836,0.09266186315204061,0.03343802244559768,0.0,0.01381617193837048,0.0698204064776542,0.13902771141749493,0.20771504237536775,0.27612779371002083,0.3424966196324599,0.41139679020176545,0.4768470196797867,0.5205974078730542,0.5513040538807974,0.5754276215430065,0.5830617720530198,0.5806130159266101,0.5833956555650512,0.5625933401552452,0.52010717617647,0.49822073935586597,0.5197466741478756,0.559562119064035,0.5905257486862807,0.5871456695450636,0.57949658920764,0.5362875378962857,0.47527872893302736,0.497203439971299,0.5882085138818629,0.6163420666216279,0.5522824890558022,0.4856133440067014,0.4217632249309331,0.362351462601777,0.3067332002015968,0.24629293385640527,0.18337944514979987,0.1169314617113848,0.06779374758502366,0.06449629327689421,0.10434722191810364,0.16554478752882806,0.23688135866088422,0.30713191232978754,0.3701101185082567,0.4329458159013899,0.4984768537226947,0.5543990364051592,0.5825385517644739,0.6003725856999707,0.6208960582858121,0.6269245684224731,0.5799907713649326,0.5427921585265485,0.5406982736509167,0.5756243276545241,0.6037993324915141,0.6098358902391212,0.6126578584796778,0.5805531369144965,0.6114748220707147,0.678361351796321,0.7680432604172698,0.7647116504387148,0.680363120958926,0.6053204271569779,0.5332389990434636,0.462333773255043,0.39624238297394965,0.3346894086540042,0.2829022157177772,0.22290327239670327,0.1543386014889112,0.09640400864495069,0.05072172706399947,0.0482340337207694,0.09334996705839305,0.152885698353314,0.22618815995091013,0.29338440198521787,0.3603351826541876,0.4279841455348452,0.49365768436255997,0.5458793343028872,0.5722565527324381,0.597670617714513,0.6022927101814364,0.6075094532806709,0.6080063162978357,0.6045551982368618,0.573575827593445,0.5495500476356436,0.5390669752172041,0.5589583991029696,0.5966887074948681,0.6149880882904213,0.6078750217090934,0.6109709823789784,0.642004528389956,0.6857492796157414,0.6208942289186858,0.5463484241540575,0.4839226725586905,0.4182952226097727,0.3661684312783493,MI
0.25700578407903674,0.18777785436360617,0.17224601206770007,0.24208697024138104,0.3477269465634434,0.47614508489463514,0.5968516896610598,0.7010102004879073,0.7938469021934589,0.8908495576034561,0.95582480897159,0.9867228699568358,1.0,0.9420934131192054,0.8823959215319919,0.8151362605399717,0.7658957838789728,0.7226345364548514,0.6709031443859033,0.6774638960753627,0.805946615444225,0.9270888871105551,0.8679220928178282,0.7125533963617503,0.537124287527063,0.3754343285976258,0.2943143020305561,0.3376952154431079,0.3537686224417058,0.3849009330283568,0.4322414784184092,0.4998394886608999,0.4423716066183898,0.3180900818028265,0.25948040728311916,0.2894439659793857,0.33722475862839296,0.34258367434915105,0.3427003292197348,0.35569987726302443,0.3897829312821699,0.40137692696238503,0.43665943921673556,0.4231428321870272,0.4380755984027287,0.4049543330529044,0.40961580704677747,0.3847479087012209,0.3742253379965801,0.34660799608990356,0.3425990433575157,0.34259270103507067,0.34050598929818054,0.31278910535704796,0.26775110962971826,0.20080454006968296,0.17012387673202767,0.24120046735432243,0.36476271223068313,0.48161212008618737,0.5998833822340695,0.6931199863119026,0.803641065058307,0.9079985851534875,0.9679823375578742,0.9574430008483752,0.9119204028988035,0.8640990649741438,0.778936032251897,0.7209059023785187,0.6971027897873299,0.6485673748773246,0.6140628205781917,0.6227145363206255,0.7146557162094576,0.8717505642602008,0.966829683992942,0.8976848307783092,0.7386450757800658,0.5596592758178467,0.39534676792495116,0.26350125780519207,0.29875964541815314,0.3114657893732149,0.34197498035151064,0.3944134680745748,0.43865560797670433,0.3809991788325018,0.28762380305104696,0.30109080692543966,0.34058035944022524,0.3633819783050649,0.3444353562088409,0.35957209806306256,0.40626222020592007,0.4140425040918583,0.4053483804917972,0.4059810033403508,0.3869415162947796,0.3694165137260592,0.37781685736442583,0.3781628767852414,0.3627651389776627,0.34302429291914294,0.33870320956206523,0.31261433027659624,0.3324993559274647,0.3273658665957724,0.3161089404528328,0.26843006890138277,0.20648752258767544,0.14909103275422453,0.17624865673500167,0.27264639275090996,0.377122349286366,0.49966546478880414,0.6325553154077532,0.7321433160638051,0.8320245326874129,0.9061018501035232,0.9391237688247651,0.9137039380058356,0.849806558518444,0.8028896789639992,0.7405513319403472,0.6927536956781717,0.6586105799812829,0.6059794314465083,0.5637620156947092,0.47964148490024705,0.49335401538371304,0.5397453525547684,0.5871546753917656,0.6351138486294419,0.6900681742538444,0.7499096371231797,0.8035576945799203,0.814874175628125,0.7373040152403894,0.6424428239967854,0.5377852184154355,0.4161380020971972,0.28912613033067647,0.1723421560848326,0.0775836084064423,0.015122317503300842,0.04204327587977552,0.09860334461980003,0.15412008340817795,0.20062780463928576,0.21807732265934643,0.19601046978866865,0.2173116604469607,0.22146172232786565,0.2411280334138759,0.2565914553312352,0.2565110809403981,0.2415899838102904,0.2601843692455805,0.27175301666840124,0.29144762922208134,0.2924951674728753,0.2843441463084444,0.2491562769812088,0.23632788691115003,0.23879834155859125,0.24090662233390425,0.20435201475217823,0.17852952523192833,0.17264860557701844,0.25973128635496145,0.2999058255002547,0.24522976423363563,0.2206830943768443,0.1936721116760145,0.1375959421142836,0.08785519816967025,0.16838186043719006,0.3302305104807832,0.45676695614426865,0.4228733766180337,0.4669511014536383,0.5083214796120172,0.546709194857721,0.56288535406678,0.5964665017207649,0.6513310868586233,0.7246867090123246,0.7893650844483648,0.8324711981436703,0.8391398150201503,0.7939192369810311,0.6888088591442054,0.5828819979816169,0.4705835861793499,0.3530970970568079,0.23337130856555,0.13092816185901235,0.03397630042744115,0.0,0.06271992798780701,0.12633208745372304,0.19442383948032926,0.22061863438991214,0.22500959530513676,0.23316581934059588,0.23418374316476154,0.22822911232336107,0.2608847669745993,0.26528605462764343,0.2823518625769905,0.29457745772055954,0.3192813303387343,0.3071429995064827,0.3065286135362717,0.26643225955201455,0.2469488010945069,0.2223169113940724,0.22095989031263663,0.21285795092221615,0.19835691266175193,0.14366193183573017,0.13169349524549112,0.17374313729433855,0.28452733950013,0.3030432420797089,0.2609832506134353,0.25664505434917917,0.2390267148652656,0.156847681278796,0.09142308721641967,0.1633427155985343,0.31908615212513425,0.45585031106890384,0.4232743090454738,0.47751684994969423,0.5523533618076328,0.5990468064098549,0.6377039639795115,0.6865827791872645,0.7542711419622199,0.8040814540349226,0.8576914869105128,0.8762849872349143,0.81571927987655,0.7474847452635016,0.6449784501724389,0.5312878705007016,0.41503860953489546,0.29434699881729465,0.19533192736975646,0.08724215987933803,0.04459650361738099,0.06566062692016406,0.12262558732904338,MI
0.6808125348066416,0.7076879037647557,0.7152881415307177,0.6908494244621657,0.6753004864044647,0.6401516616675402,0.6166361081505447,0.6529884250265692,0.6698667010083352,0.622392337543707,0.5476583426956512,0.4695360941378488,0.3932418097273711,0.326946810997492,0.30040376147996395,0.3743324917083317,0.460080196723313,0.5484350502699094,0.6333893514485365,0.7098074522058302,0.7959566957076496,0.8803445078393746,0.9255008119214951,0.882930948735297,0.8174039556719599,0.7735592338674884,0.7308997930035208,0.6829293114434862,0.653790681465414,0.6443650648698325,0.635067802560956,0.6000597441048958,0.5437411035822621,0.480294673071441,0.4169050494604356,0.3672657006558784,0.3853882761004912,0.4398987474721796,0.48422551281431914,0.4665227740363087,0.3944583980001555,0.31624451702342604,0.23821324394646926,0.18104887668933323,0.197480010230217,0.28082167053484297,0.372129909636739,0.4635265234833552,0.5547767696853274,0.6416390933321723,0.7286257532595184,0.8131882467289977,0.8630319046013128,0.8264279212412435,0.7654370851948797,0.7368438014906644,0.7071900313052999,0.7137723517164563,0.7540524973107141,0.7636388532890943,0.7745426948099146,0.7911376076187071,0.7633261834591469,0.7114098500924788,0.6492201113102005,0.5841869531992148,0.5505545839735193,0.588055811531216,0.6363106201092508,0.6486408204544343,0.5951633823341518,0.5211641596935466,0.44231456421642057,0.36498004189440336,0.2982459643376092,0.3001397043892644,0.38383113632585664,0.4688568293521225,0.5585809462755171,0.6497543528852714,0.736144047450445,0.823936236075465,0.9125162101704256,0.991508962698102,1.0,0.9332580668792345,0.8659386607898141,0.8174659957269776,0.7821208868412415,0.7437568641682686,0.746461138454992,0.7559870181166357,0.7307584899341211,0.7092736399377888,0.678065141089937,0.6298224547485358,0.56561079432849,0.4994497449015405,0.43558817169006736,0.38446950217958786,0.4012904165851212,0.4491465673942878,0.45645044042609695,0.39902860780439253,0.31860094539769124,0.2395193847110304,0.16963802212469004,0.13154573472216136,0.19052407709569508,0.2800983915654789,0.3650388420526154,0.45536321054272677,0.5467565197429178,0.6381219188062683,0.7267591012224726,0.8089346043461603,0.8432774147462931,0.7957097106108693,0.7340170196524269,0.702190988101864,0.6706377368275507,0.6631034073813764,0.6874386751460382,0.6945802184172787,0.7158000882638857,0.6990885956761446,0.6708833829284075,0.6585953596517486,0.6288583295817525,0.6156643485814979,0.6591212585341246,0.6888129071842295,0.7241819006151125,0.7488201079062449,0.6823249729453278,0.5932326348948083,0.5077163179569251,0.41884503573829157,0.3275264767479218,0.23944219283465817,0.15342032049414533,0.06692981616181715,0.0,0.028978920501988803,0.10265520720635846,0.1647357041029769,0.23075095217165353,0.3071538565823675,0.3821444595795811,0.4232844075648472,0.38635687757258896,0.3514041961980383,0.3735079753454731,0.431483290836856,0.49811592013055694,0.5665413824510637,0.6253571415871484,0.6686988033651968,0.6921740456113608,0.7190369026649444,0.7260761803035649,0.7002488955032091,0.7223346411222213,0.7644013215049517,0.8017665103350571,0.8490211770420799,0.880383137101485,0.8135451606633797,0.7231205633351594,0.6377364658348805,0.5486489463646123,0.4577789708449631,0.37237118832080895,0.2835869099870105,0.19770490959087939,0.12626216943829982,0.14416138704137693,0.22229173657762535,0.2979887274249813,0.3657836157700016,0.44301430622895155,0.5216527262408344,0.5913173404582579,0.5998029836986187,0.5537044144817149,0.5193573346476237,0.5485381471059569,0.6098712034894163,0.6726877647154528,0.7300919292336696,0.7603733561800843,0.7409283285025248,0.7321094707883566,0.7153893586838929,0.6717407735888683,0.6631877767292671,0.7024131702029546,0.7289040672647178,0.7693455757288774,0.7708683451379357,0.6955092845033743,0.6094622581162115,0.5216681007855282,0.43066968979373543,0.3448073332542969,0.25637613474623344,0.16654488961050617,0.08247417911786925,0.024460909735752434,0.06498836432367194,0.13767493395371533,0.19933819626845017,0.2760102985700179,0.35858777896912164,0.42900705587831545,0.4414810474464077,0.38766477154530343,0.3403848724498475,0.3335221381753428,0.3808553455593695,0.444217364059587,0.5111676084409413,0.5679065864554458,0.6060052507980884,0.6185844260568454,0.6285113136705125,0.6408323353081975,0.6900198976622884,0.7359622663242831,0.7774534355745821,0.8302563078569956,0.8223140541612812,0.7395624844318953,0.6512360058392794,0.5653717322689744,0.4746366028105178,0.38879673018264715,0.30100273949176204,0.21637368852509442,0.15155597706220592,0.18395145500766374,0.26043357225502617,0.33101186620572975,0.3990316043988493,0.4775452272434386,0.5601817227611658,0.627511320168332,0.6237533609365045,0.5856602038630647,0.5931321664302651,0.6313652982968805,0.6627389607835115,0.6886513646341854,0.6768390202554351,0.6455479462056326,MI
0.5263460166158662,0.5098693999502033,0.47665729473240903,0.40569866546151445,0.318730627606743,0.2767433612046215,0.3413093710500892,0.399076864476124,0.4091083854091897,0.40919999257960615,0.40775349884070833,0.4020332257160173,0.47225626188302083,0.570354136774947,0.6681594326526645,0.7712863853136427,0.8683528624498313,0.9539480076001281,1.0,0.97273051413366,0.9015803015714994,0.8372391536017232,0.7847640281368138,0.7219621620821761,0.6283603071802326,0.5432367954859889,0.48497294684996684,0.5627839753747024,0.6122052094318411,0.5469573679168414,0.4767732607892192,0.5072460540299719,0.5384422180224542,0.5173458635462005,0.48478164947664437,0.42346110777532786,0.33949648334697446,0.31526451075276407,0.37819783494737,0.4248839396621542,0.4451564969394233,0.4361418413128675,0.4167906756270816,0.3997572010576227,0.4559480070780846,0.5586575789231509,0.6665368008942458,0.7705636363701349,0.8677653084883619,0.9476774436957234,0.9780048870375806,0.9412302884112931,0.8854354109581473,0.8214278240404327,0.7735591207780259,0.698679070038533,0.611536968020546,0.5493722008104052,0.6103532500243665,0.6653994943218908,0.5958333474180604,0.49597145841008894,0.4351306007526201,0.4324540137427326,0.3933171563142923,0.3493162250879398,0.2900439419127623,0.2266722456309851,0.14654792661240412,0.09096932345604403,0.1417837100928372,0.19795199086905058,0.2393965538603302,0.2833141299821649,0.35599948894968625,0.4294907141980784,0.4412917191820167,0.46740385472189105,0.556395988755717,0.6537863845699219,0.7568380796497851,0.8622827971764591,0.9428989544358051,0.9812175268793788,0.9526954881948408,0.8951819659060067,0.8322609652546173,0.7791824568378813,0.719003204068851,0.6250637691483822,0.5699741085005479,0.6438996130801264,0.687487449314109,0.6107567070349735,0.5185684472425227,0.5160233592889507,0.5185081792182786,0.5023566669688946,0.46248905754012526,0.4104575417085945,0.33189178537019215,0.2738412661433114,0.3117360945009202,0.36356049573913474,0.37244616521567053,0.3691120376227808,0.35854152922656235,0.34938218864543913,0.4028039964852761,0.49775716893666244,0.5976419443111509,0.6993267048971314,0.7959442486526709,0.8932237960102003,0.9568011383023478,0.9545837436088038,0.9068188360741893,0.8516530781179621,0.8034544745566325,0.7344179057651283,0.6449116812457074,0.5639572322564184,0.5882669417451178,0.6324191831055441,0.573508030143397,0.5376349134661385,0.5202861599154938,0.4410357203780073,0.40106891587786375,0.473976036522727,0.4628290221459941,0.41822328359070715,0.4760084876644326,0.5575704883957049,0.6468116656422049,0.7326092513867568,0.7884939777785016,0.8365754455451091,0.8929152520996073,0.8974765941526175,0.83375000635173,0.7384337212141139,0.630098094474854,0.525644742821322,0.43016638797282214,0.3406483670330176,0.28823268394426727,0.2820844689143258,0.30069272460997265,0.3013845545889118,0.28935571400793236,0.236337783206356,0.18057426847052316,0.19874844176105277,0.2800077760156796,0.3606883004219621,0.4187777927523655,0.4545435561083253,0.4445707592055763,0.37820835506056305,0.380372491170371,0.4765730695515753,0.504523331858918,0.4888339921231397,0.547717306638762,0.6303165601022549,0.7085697450273418,0.7662822533745053,0.819041648535463,0.8838272044473552,0.916827610554702,0.85963731627887,0.7711463559165694,0.6696770498257161,0.5600896561431248,0.4625957274156276,0.3881465776950086,0.3735883648371576,0.34567192445293715,0.27600583202696827,0.21556263995466596,0.17534102396917017,0.130629379780264,0.06157268593821996,0.0,0.01740158137330905,0.09763709906327112,0.1819450442130397,0.2463515011088626,0.3039703256302526,0.34666171507402854,0.3501212313621642,0.31287486965498124,0.3752834625822907,0.4720966257952375,0.4687592428811591,0.4768357576408082,0.552700892572056,0.6476585740978176,0.7202716267717508,0.7669421535477277,0.8280678187995427,0.8871816472028131,0.8906612059271692,0.8097291387657775,0.711619910528591,0.6077712529884574,0.5096066434945246,0.4118925470543049,0.34110861028252293,0.33248423823547535,0.36474737673863844,0.37636604527985895,0.3738862691176563,0.3502510453807255,0.2792378703866132,0.2184859428658812,0.24081217804898847,0.32380691191162514,0.39773671978597447,0.44378767189697843,0.4511226808229143,0.4151569344691399,0.3173757939684192,0.2822940951775821,0.370499618394875,0.4640019029837701,0.42137206074692823,0.39557717554915817,0.4647018528341156,0.5547107593942529,0.6456270630087064,0.7243135570140327,0.7777163513015188,0.8373846296665755,0.9091224023425095,0.9180887175675436,0.836048354706663,0.7313299852526725,0.628199753079195,0.5289014510786219,0.43755376861093565,0.3595818944633913,0.3246065907051565,0.3351688176313403,0.34606495993019637,0.34126136340492597,0.3222169127816765,0.2526794899988447,0.19158394888212538,0.2216069045777358,0.30899128076564475,0.39835104035249547,0.4447335683654954,0.46055471017275185,MI
0.5631169086141634,0.6132883147638886,0.6566256621737692,0.6982131111964582,0.7483686565155292,0.7845810308573329,0.8137127332614327,0.8450700926544359,0.8311716504183826,0.8588941395643239,0.7998712954763887,0.7001776081173654,0.5762793730095002,0.461719326803542,0.41630230228017684,0.516853145707409,0.6197381227291014,0.7245463123944864,0.7614761344854708,0.651745596189583,0.6051892375060257,0.6230765198582526,0.6407037645169513,0.6032546470181739,0.6013941893181656,0.6593681499171211,0.6640906611711639,0.6815586128555049,0.646120924105178,0.6487495766176945,0.660948983446966,0.6631797174935636,0.6859628138813791,0.6856230609434544,0.6708477785038403,0.66878757655366,0.6494514685170092,0.6723748998704151,0.7173918791253264,0.7731369275756412,0.8265267047085016,0.8745351980766731,0.8746379234380708,0.8610478533855552,0.881267172147993,0.8944411952600158,0.8931126620115108,0.8340959395068133,0.8258632376071207,0.7686394052712844,0.6635722896507437,0.5601662352618728,0.44256962124783517,0.4262147662632527,0.5707433748013022,0.6830740158270538,0.797545733309641,0.8883383010131132,0.8376971862178566,0.7825201002736408,0.755224774467254,0.7743130300055796,0.7883751498608813,0.7001804047637261,0.6641197784272022,0.6989430586480943,0.6988796243796909,0.6774802422549406,0.6844499543354488,0.7530918726019245,0.7710970665582844,0.7769266282461791,0.7481834982844973,0.6579709427704481,0.5923727541135229,0.5635070824166757,0.5845080613930875,0.6565058999634887,0.7302070923058901,0.8138603502148181,0.8875632131619389,0.9384084571451687,0.9766593664095371,0.9945509180280032,1.0,0.9724588967486953,0.9227232302756958,0.826932137034512,0.7945418537933691,0.7734690180260531,0.6674088495864101,0.5551765703251119,0.44283812796638156,0.35069801594498173,0.42011591442243024,0.5419402964254703,0.64308621509816,0.7571999347410028,0.7856580247162555,0.7760966324204599,0.8039666731158253,0.7904783826116217,0.7785102027779356,0.7134036267695265,0.6930216307990795,0.7569057817128266,0.7877918559772832,0.7713053768377849,0.7500346683660855,0.738726303672232,0.7004194052018731,0.6869447256979937,0.6856521992044051,0.6808726254735129,0.6864881131770089,0.640940704837142,0.6200066155033834,0.6223124000128619,0.6793521507162072,0.7395267839083202,0.8056785757811413,0.8714566345167141,0.9149760514281269,0.9084418657272071,0.8461756294402658,0.772917946806138,0.7552292361725668,0.7353028533783581,0.6843646711594387,0.6101236091911231,0.5452458747100541,0.4852258770004383,0.4505899232380344,0.4643684934918646,0.5121040816022013,0.5237398967159281,0.537813072386272,0.5356530443482024,0.5772268069756503,0.5895140972143773,0.6112357072400085,0.6481419295191095,0.6269390509831707,0.578293554554425,0.540835896395869,0.5515889375607852,0.604588021976955,0.6449692397789795,0.6378507203069201,0.6124930635653474,0.5825314608225769,0.5249472211566442,0.40663818758561643,0.27103368965109187,0.13020363357138898,0.025478023617028,0.06417342890186184,0.21698197208281922,0.35574110400084624,0.4573888653855347,0.5668781965933434,0.615836204782668,0.6641403225877411,0.7561258332060392,0.8200801778455409,0.8361968999903207,0.8325094823222505,0.7964233604589506,0.7363017036144042,0.6521704634464864,0.5786870409517135,0.5060783551397083,0.43511780719594473,0.41094150444368704,0.4404668613321352,0.48136386358896655,0.5551241235003666,0.6231583587185856,0.6259746951900924,0.5966701528988949,0.5419343578175999,0.5269980684247342,0.5328106726732624,0.5464661336996102,0.5246039193442904,0.5091924033431932,0.5610961480478984,0.614761420171936,0.5948034779633291,0.6396391519647997,0.6723850361414412,0.6502259442091205,0.5586568607435183,0.4276009675454757,0.28668449506938476,0.13744419611663883,0.011498395269742723,0.032871968072989866,0.1639143569366146,0.3087762722443701,0.45307071419935596,0.55151030969565,0.6535792023105005,0.6488034730345538,0.6944061427802088,0.7428471938896042,0.7240307038248739,0.6816791413519168,0.7129639002073676,0.7217973112496079,0.6794746955017761,0.6581651886128723,0.5913351547880819,0.5506874668924775,0.5169784138101541,0.5015995714791295,0.5243311726868827,0.546144433268922,0.532861185190308,0.511880950964307,0.5195699420403459,0.5043710709608717,0.5194656824859729,0.5442923239700015,0.5261831231980896,0.4803934157685097,0.40526915984861045,0.425906079018044,0.49899888812042814,0.5029698931673554,0.47298888732895694,0.449635328922235,0.40389459988507603,0.43314257363489705,0.5086634756515886,0.43683567119800504,0.32436027683235213,0.2054834873482303,0.0621612503249267,0.0,0.08804065506115233,0.23105412384651736,0.38016202639074503,0.5155149016119207,0.6384117163336089,0.6786160397950036,0.6881316996326667,0.6832589869437928,0.6541323644798736,0.6374681211421054,0.6047896378787261,0.549600852845936,0.5104001117298669,0.4616084759856003,0.3998897960903225,MI
0.638133332107643,0.6826528041783231,0.7156521107679312,0.7362012710588872,0.7180971659521802,0.6379506850691565,0.5363535303244427,0.5529242323694463,0.6667253176793828,0.780432554773856,0.9053190754209393,1.0,0.9832024011260101,0.9178863743571801,0.8750307322845252,0.8914544134204969,0.8864513059274852,0.8445035303526605,0.861293581671811,0.8570473173782229,0.8492174946529292,0.8515358997553224,0.8504135461889257,0.8380669967610332,0.8238113515356464,0.8226787678068819,0.822678231017588,0.822678231017588,0.8224471286383137,0.8122518286039022,0.8030612011249447,0.8029663062891221,0.8097404757338889,0.8221723957555178,0.8228814272829634,0.8326339344284799,0.8375614426533278,0.8038010899882173,0.7456161071624381,0.6684092119436551,0.5817118859583359,0.49454328666923075,0.41228940353335064,0.39495254891264153,0.44523966770828105,0.5014618278155063,0.5541180413366775,0.608062750943041,0.6543741311038902,0.6808379806665039,0.7021164448859816,0.6995275231061675,0.649606834349342,0.5515691726881684,0.48029967472165724,0.5651092861102529,0.6786987668595179,0.7834986798871175,0.8760531909422107,0.9615623781135412,0.9375409374561463,0.8704854407050719,0.8465996719924123,0.8692338568363414,0.843288144137734,0.807190310223239,0.8022528214107063,0.7892939872096392,0.7831713038372095,0.7831536509391137,0.787852536902788,0.7980720144617774,0.7965472504927162,0.801072236621259,0.7973792019374573,0.8053907138670855,0.8204847916428264,0.8226741959467345,0.822678231017588,0.8226782941692701,0.8232472210618211,0.8356606708157508,0.8297379000348291,0.7824277853552504,0.7155948634938727,0.6372673158407394,0.548876130537602,0.455012428932831,0.3783017914335005,0.3183536541274843,0.3422512281794421,0.3995013134066907,0.4500516593252386,0.5075951907323906,0.5373662774348538,0.5744484645549965,0.6030783266239008,0.6184203889618765,0.5905453805644201,0.5093455712300399,0.40959374152713757,0.40677077608739287,0.5161675522473335,0.6365298491265885,0.748339058801553,0.8409563721218567,0.8201669512153007,0.7533673144054069,0.7160522071703204,0.7025940171795844,0.6737060098571144,0.6426905322707639,0.6381185715240547,0.592986674012931,0.5139092940769756,0.3929858400531665,0.27020948348826046,0.19999998104583971,0.20848112517073325,0.2869663211299103,0.41116759327738484,0.5261209736663135,0.5560355501264302,0.4712762006079738,0.3465535555938324,0.23527336264051524,0.19591931042579924,0.21751032916146062,0.3125334038841192,0.437739573034011,0.5415099289213177,0.5819964499063177,0.6304768190168448,0.6401303348325404,0.6522847424040332,0.689910210061528,0.6975238137706139,0.5967807012041266,0.4804429780664332,0.3569825988589135,0.24866674538283284,0.15336106630610047,0.040780787392675766,0.0,0.08410767533211194,0.1982239803888608,0.30908929081683434,0.4245414736401911,0.5229979501016881,0.5532195330596945,0.5312146004111251,0.4922142261046023,0.4649049040873261,0.409768037436689,0.35745792967087464,0.30356108731724873,0.2543097770853109,0.25423060790088137,0.30752120944991823,0.3902442905157928,0.4700504995365664,0.5612842350459233,0.645723844254058,0.7194466083487443,0.7701272591210961,0.7742673762091732,0.7620324933164109,0.7642915898409011,0.7570644003254805,0.7619543133984741,0.7622975473942923,0.7560042150560289,0.745417432021322,0.7423881521805651,0.7441381839583121,0.7236470708613867,0.7349842120035239,0.7344628037078778,0.7288013487764111,0.7354365901395066,0.7391005336258134,0.7483478818082898,0.7423509747708463,0.7746052316639083,0.7932522824194841,0.7819621555891061,0.8063466910701709,0.8213974958530978,0.7245653602264994,0.5992680003231023,0.47328207262954924,0.3521482409932708,0.24020875378653672,0.12694539094593527,0.07750936817624021,0.15410391979087068,0.26522246797794047,0.38120009217795525,0.49198205114351445,0.596123162460036,0.6356029200551059,0.6297866387284636,0.6000892959158479,0.5506524317315336,0.4980878093141561,0.4405109324472898,0.3891383327319464,0.3387866545734939,0.3260643710624218,0.37083024429411937,0.4474998989094803,0.5312852572830615,0.6173856738319006,0.6984793815455217,0.761071593017359,0.7839089059947693,0.7752422366668319,0.7629804970799667,0.7555270993032899,0.7554458238430608,0.7554458238430608,0.7554471570034633,0.7569766260091932,0.7714814823752572,0.767518321173021,0.7690359043724411,0.7751678526682992,0.7754920410914012,0.7860441499165645,0.7948664119682638,0.7949940986712805,0.7942010902213514,0.7735553285560877,0.7760544222006689,0.8210157990298916,0.8143715572870329,0.8138961995864089,0.8437341118734918,0.8586365925151713,0.7634768071371263,0.6469702353947797,0.5322250542256262,0.4072989939341616,0.294603943798605,0.17529486752210666,0.09809707191545858,0.1583157460232414,0.2679684102406563,0.3830351088589783,0.49361858133258263,0.6018063523136656,0.6666135649062825,0.6564788902064769,0.617535572836525,0.5704959040838293,MI
0.2383548978912502,0.23009356768191958,0.21256597634217478,0.22702997174154693,0.27615486750889984,0.3292237726562799,0.37577480684833753,0.3991240186821552,0.3813666740126396,0.360814891416507,0.38150548813231344,0.4527336788607681,0.5356171297374632,0.6203015419503846,0.7007273334064963,0.7819179839711938,0.8617225573037834,0.9395143741335761,0.9656790140835478,0.9029242701439417,0.8239617015097411,0.7417096892254367,0.6590720713241707,0.5796292471192894,0.4951971429544455,0.4105207223030358,0.33022719721468374,0.24861330873561172,0.16384193323052432,0.08873597395184074,0.09727142840759417,0.1512704579801496,0.1691589357373633,0.1791235312625974,0.20006930744872942,0.21803389204549561,0.22093530783910564,0.23021738172293937,0.21890192337674308,0.19306699687996898,0.1803324680099352,0.2034354726890102,0.24207677317937915,0.29402601454055866,0.3411496860968535,0.3583785462335034,0.338127858444345,0.34681284652272426,0.40809292171228484,0.48248481314666525,0.5614832206670939,0.640918072393382,0.7230826671058723,0.802574296206557,0.8847495658143165,0.962685278308379,1.0,0.9400474265240621,0.8613953359092341,0.7783061173996608,0.6941865198705881,0.6178696154347225,0.5493954987928764,0.48145107172890667,0.4100765433094955,0.33222635185232674,0.24896984416199897,0.166725939877006,0.11953522501118008,0.16426419412034732,0.2009389458143367,0.20569512543417634,0.20201045503462312,0.23271212661842067,0.25265038900381653,0.2583591906400189,0.24892600411300236,0.2383155826265464,0.2177265747016015,0.23691449265256126,0.28348699663698285,0.334117254536882,0.3674130304248411,0.3674893074451271,0.3574168735629122,0.3919984634018061,0.460045433257545,0.5372754633701664,0.6161711294502024,0.6892867549479476,0.762128431768764,0.842956683650548,0.923422962953647,0.9986992001210435,0.9912241573909188,0.9180871428741038,0.835075896679814,0.753281706670476,0.6731555600887824,0.5885793748635688,0.5070620022494785,0.42668035166417106,0.34203910655118985,0.2601831939370689,0.18100372035044776,0.1365732605759311,0.18782341028279426,0.22416250367148072,0.21656238128070293,0.20781811366844627,0.2269141119420568,0.23937476963224613,0.2540681328329104,0.265646054424431,0.26192260373335374,0.2566294296330396,0.23337607204463917,0.25077013643871204,0.29133993592570273,0.33537256286153316,0.3543629122202505,0.33634403452774775,0.31138540973159157,0.3313824985879612,0.3942678788634133,0.47099664234468297,0.5497559262778862,0.6319024988707427,0.7120530821562021,0.7935820615458495,0.873665487903807,0.9495828447705037,0.9691904900913744,0.9010985795786772,0.8331210334174997,0.7691018712848676,0.6856984382342426,0.6008384003026543,0.5176655003577226,0.4404971237757347,0.36571995547839786,0.30420545660872755,0.2688123243844389,0.27539056977120824,0.30408117928131495,0.31141759322161344,0.27550832200929665,0.22590763571454664,0.1916382455867094,0.20577429590752927,0.22206511204903157,0.23361123057406696,0.21856613165082894,0.21275795698876454,0.20762497465988994,0.1910953700645288,0.16251906045233588,0.17141578910463728,0.177911338259771,0.13223510388106874,0.07150725580676887,0.04612146236891501,0.1063261614234483,0.1852443778517805,0.267836474425329,0.3526653029019997,0.43532106955508043,0.5147722311574057,0.5992007666206609,0.6803245957186741,0.6962286402217324,0.626819592688955,0.5440685766116826,0.4628947311007712,0.3903595290396049,0.3406219382501985,0.3210229516725611,0.33360347251307054,0.3258200952699275,0.28016087248168686,0.2298972803261088,0.18963014384200938,0.18414092584942598,0.20183706200950824,0.2188431279569496,0.22159593639664732,0.22033342763881647,0.19334200890281683,0.16611434702517514,0.17041004874092036,0.16483592347088605,0.11200323535209189,0.053111264707605965,0.040655321474781125,0.1056298147628536,0.1875204012155236,0.27183566011206817,0.3511452660996328,0.43401862776130007,0.5186090016276443,0.5985714741241268,0.6805684045740177,0.7630453097594236,0.7837501121591304,0.7116818184858971,0.6322352439275465,0.5478435139789677,0.46631791382524423,0.3928026037664183,0.32865522848945905,0.3010575165996465,0.31502229301242024,0.313646631654922,0.27121533899584116,0.21722700871446232,0.17073064855996178,0.14679260378546855,0.14593971200285227,0.17093049072738653,0.17995614220656275,0.1816471738131542,0.17405272255616744,0.1573379161133135,0.1321140915065533,0.13570709879317655,0.11429981137760703,0.05406032379960202,0.0,0.00019146988022877842,0.07105391163396835,0.15509511129928866,0.23556821714872656,0.31698926510488645,0.40178724235073604,0.48656169410895145,0.5676773068617209,0.6484320422898429,0.7274307174749648,0.7251154636177695,0.650627819798443,0.5680789437268481,0.4884889383838533,0.4104603448385895,0.33876478869379745,0.3071779260387013,0.33163930487089965,0.3525908616217741,0.3515307791885536,0.32352124520610426,0.2700777255977158,0.21533629671882415,0.1746816276636427,0.18004421357535283,0.19829755652695535,0.20730559342197008,MI
0.5263460166158662,0.5098693999502033,0.47665729473240903,0.40569866546151445,0.318730627606743,0.2767433612046215,0.3413093710500892,0.399076864476124,0.4091083854091897,0.40919999257960615,0.40775349884070833,0.4020332257160173,0.47225626188302083,0.570354136774947,0.6681594326526645,0.7712863853136427,0.8683528624498313,0.9539480076001281,1.0,0.97273051413366,0.9015803015714994,0.8372391536017232,0.7847640281368138,0.7219621620821761,0.6283603071802326,0.5432367954859889,0.48497294684996684,0.5627839753747024,0.6122052094318411,0.5469573679168414,0.4767732607892192,0.5072460540299719,0.5384422180224542,0.5173458635462005,0.48478164947664437,0.42346110777532786,0.33949648334697446,0.31526451075276407,0.37819783494737,0.4248839396621542,0.4451564969394233,0.4361418413128675,0.4167906756270816,0.3997572010576227,0.4559480070780846,0.5586575789231509,0.6665368008942458,0.7705636363701349,0.8677653084883619,0.9476774436957234,0.9780048870375806,0.9412302884112931,0.8854354109581473,0.8214278240404327,0.7735591207780259,0.698679070038533,0.611536968020546,0.5493722008104052,0.6103532500243665,0.6653994943218908,0.5958333474180604,0.49597145841008894,0.4351306007526201,0.4324540137427326,0.3933171563142923,0.3493162250879398,0.2900439419127623,0.2266722456309851,0.14654792661240412,0.09096932345604403,0.1417837100928372,0.19795199086905058,0.2393965538603302,0.2833141299821649,0.35599948894968625,0.4294907141980784,0.4412917191820167,0.46740385472189105,0.556395988755717,0.6537863845699219,0.7568380796497851,0.8622827971764591,0.9428989544358051,0.9812175268793788,0.9526954881948408,0.8951819659060067,0.8322609652546173,0.7791824568378813,0.719003204068851,0.6250637691483822,0.5699741085005479,0.6438996130801264,0.687487449314109,0.6107567070349735,0.5185684472425227,0.5160233592889507,0.5185081792182786,0.5023566669688946,0.46248905754012526,0.4104575417085945,0.33189178537019215,0.2738412661433114,0.3117360945009202,0.36356049573913474,0.37244616521567053,0.3691120376227808,0.35854152922656235,0.34938218864543913,0.4028039964852761,0.49775716893666244,0.5976419443111509,0.6993267048971314,0.7959442486526709,0.8932237960102003,0.9568011383023478,0.9545837436088038,0.9068188360741893,0.8516530781179621,0.8034544745566325,0.7344179057651283,0.6449116812457074,0.5639572322564184,0.5882669417451178,0.6324191831055441,0.573508030143397,0.5376349134661385,0.5202861599154938,0.4410357203780073,0.40106891587786375,0.473976036522727,0.4628290221459941,0.41822328359070715,0.4760084876644326,0.5575704883957049,0.6468116656422049,0.7326092513867568,0.7884939777785016,0.8365754455451091,0.8929152520996073,0.8974765941526175,0.83375000635173,0.7384337212141139,0.630098094474854,0.525644742821322,0.43016638797282214,0.3406483670330176,0.28823268394426727,0.2820844689143258,0.30069272460997265,0.3013845545889118,0.28935571400793236,0.236337783206356,0.18057426847052316,0.19874844176105277,0.2800077760156796,0.3606883004219621,0.4187777927523655,0.4545435561083253,0.4445707592055763,0.37820835506056305,0.380372491170371,0.4765730695515753,0.504523331858918,0.4888339921231397,0.547717306638762,0.6303165601022549,0.7085697450273418,0.7662822533745053,0.819041648535463,0.8838272044473552,0.916827610554702,0.85963731627887,0.7711463559165694,0.6696770498257161,0.5600896561431248,0.4625957274156276,0.3881465776950086,0.3735883648371576,0.34567192445293715,0.27600583202696827,0.21556263995466596,0.17534102396917017,0.130629379780264,0.06157268593821996,0.0,0.01740158137330905,0.09763709906327112,0.1819450442130397,0.2463515011088626,0.3039703256302526,0.34666171507402854,0.3501212313621642,0.31287486965498124,0.3752834625822907,0.4720966257952375,0.4687592428811591,0.4768357576408082,0.552700892572056,0.6476585740978176,0.7202716267717508,0.7669421535477277,0.8280678187995427,0.8871816472028131,0.8906612059271692,0.8097291387657775,0.711619910528591,0.6077712529884574,0.5096066434945246,0.4118925470543049,0.34110861028252293,0.33248423823547535,0.36474737673863844,0.37636604527985895,0.3738862691176563,0.3502510453807255,0.2792378703866132,0.2184859428658812,0.24081217804898847,0.32380691191162514,0.39773671978597447,0.44378767189697843,0.4511226808229143,0.4151569344691399,0.3173757939684192,0.2822940951775821,0.370499618394875,0.4640019029837701,0.42137206074692823,0.39557717554915817,0.4647018528341156,0.5547107593942529,0.6456270630087064,0.7243135570140327,0.7777163513015188,0.8373846296665755,0.9091224023425095,0.9180887175675436,0.836048354706663,0.7313299852526725,0.628199753079195,0.5289014510786219,0.43755376861093565,0.3595818944633913,0.3246065907051565,0.3351688176313403,0.34606495993019637,0.34126136340492597,0.3222169127816765,0.2526794899988447,0.19158394888212538,0.2216069045777358,0.30899128076564475,0.39835104035249547,0.4447335683654954,0.46055471017275185,MI
0.6808125348066416,0.7076879037647557,0.7152881415307177,0.6908494244621657,0.6753004864044647,0.6401516616675402,0.6166361081505447,0.6529884250265692,0.6698667010083352,0.622392337543707,0.5476583426956512,0.4695360941378488,0.3932418097273711,0.326946810997492,0.30040376147996395,0.3743324917083317,0.460080196723313,0.5484350502699094,0.6333893514485365,0.7098074522058302,0.7959566957076496,0.8803445078393746,0.9255008119214951,0.882930948735297,0.8174039556719599,0.7735592338674884,0.7308997930035208,0.6829293114434862,0.653790681465414,0.6443650648698325,0.635067802560956,0.6000597441048958,0.5437411035822621,0.480294673071441,0.4169050494604356,0.3672657006558784,0.3853882761004912,0.4398987474721796,0.48422551281431914,0.4665227740363087,0.3944583980001555,0.31624451702342604,0.23821324394646926,0.18104887668933323,0.197480010230217,0.28082167053484297,0.372129909636739,0.4635265234833552,0.5547767696853274,0.6416390933321723,0.7286257532595184,0.8131882467289977,0.8630319046013128,0.8264279212412435,0.7654370851948797,0.7368438014906644,0.7071900313052999,0.7137723517164563,0.7540524973107141,0.7636388532890943,0.7745426948099146,0.7911376076187071,0.7633261834591469,0.7114098500924788,0.6492201113102005,0.5841869531992148,0.5505545839735193,0.588055811531216,0.6363106201092508,0.6486408204544343,0.5951633823341518,0.5211641596935466,0.44231456421642057,0.36498004189440336,0.2982459643376092,0.3001397043892644,0.38383113632585664,0.4688568293521225,0.5585809462755171,0.6497543528852714,0.736144047450445,0.823936236075465,0.9125162101704256,0.991508962698102,1.0,0.9332580668792345,0.8659386607898141,0.8174659957269776,0.7821208868412415,0.7437568641682686,0.746461138454992,0.7559870181166357,0.7307584899341211,0.7092736399377888,0.678065141089937,0.6298224547485358,0.56561079432849,0.4994497449015405,0.43558817169006736,0.38446950217958786,0.4012904165851212,0.4491465673942878,0.45645044042609695,0.39902860780439253,0.31860094539769124,0.2395193847110304,0.16963802212469004,0.13154573472216136,0.19052407709569508,0.2800983915654789,0.3650388420526154,0.45536321054272677,0.5467565197429178,0.6381219188062683,0.7267591012224726,0.8089346043461603,0.8432774147462931,0.7957097106108693,0.7340170196524269,0.702190988101864,0.6706377368275507,0.6631034073813764,0.6874386751460382,0.6945802184172787,0.7158000882638857,0.6990885956761446,0.6708833829284075,0.6585953596517486,0.6288583295817525,0.6156643485814979,0.6591212585341246,0.6888129071842295,0.7241819006151125,0.7488201079062449,0.6823249729453278,0.5932326348948083,0.5077163179569251,0.41884503573829157,0.3275264767479218,0.23944219283465817,0.15342032049414533,0.06692981616181715,0.0,0.028978920501988803,0.10265520720635846,0.1647357041029769,0.23075095217165353,0.3071538565823675,0.3821444595795811,0.4232844075648472,0.38635687757258896,0.3514041961980383,0.3735079753454731,0.431483290836856,0.49811592013055694,0.5665413824510637,0.6253571415871484,0.6686988033651968,0.6921740456113608,0.7190369026649444,0.7260761803035649,0.7002488955032091,0.7223346411222213,0.7644013215049517,0.8017665103350571,0.8490211770420799,0.880383137101485,0.8135451606633797,0.7231205633351594,0.6377364658348805,0.5486489463646123,0.4577789708449631,0.37237118832080895,0.2835869099870105,0.19770490959087939,0.12626216943829982,0.14416138704137693,0.22229173657762535,0.2979887274249813,0.3657836157700016,0.44301430622895155,0.5216527262408344,0.5913173404582579,0.5998029836986187,0.5537044144817149,0.5193573346476237,0.5485381471059569,0.6098712034894163,0.6726877647154528,0.7300919292336696,0.7603733561800843,0.7409283285025248,0.7321094707883566,0.7153893586838929,0.6717407735888683,0.6631877767292671,0.7024131702029546,0.7289040672647178,0.7693455757288774,0.7708683451379357,0.6955092845033743,0.6094622581162115,0.5216681007855282,0.43066968979373543,0.3448073332542969,0.25637613474623344,0.16654488961050617,0.08247417911786925,0.024460909735752434,0.06498836432367194,0.13767493395371533,0.19933819626845017,0.2760102985700179,0.35858777896912164,0.42900705587831545,0.4414810474464077,0.38766477154530343,0.3403848724498475,0.3335221381753428,0.3808553455593695,0.444217364059587,0.5111676084409413,0.5679065864554458,0.6060052507980884,0.6185844260568454,0.6285113136705125,0.6408323353081975,0.6900198976622884,0.7359622663242831,0.7774534355745821,0.8302563078569956,0.8223140541612812,0.7395624844318953,0.6512360058392794,0.5653717322689744,0.4746366028105178,0.38879673018264715,0.30100273949176204,0.21637368852509442,0.15155597706220592,0.18395145500766374,0.26043357225502617,0.33101186620572975,0.3990316043988493,0.4775452272434386,0.5601817227611658,0.627511320168332,0.6237533609365045,0.5856602038630647,0.5931321664302651,0.6313652982968805,0.6627389607835115,0.6886513646341854,0.6768390202554351,0.6455479462056326,MI
0.2676564525585192,0.2760482563921207,0.265263278353133,0.23380526237566235,0.27177558276139724,0.369372258649729,0.4657179945305461,0.5552291720387004,0.6542904736276887,0.7541596122806951,0.8526989293918312,0.9405583538373885,0.9952867287524501,0.9415586558011304,0.8436757746718548,0.7481214697562293,0.6588367798790897,0.5739435950723664,0.5171354650299804,0.5133376498869429,0.5044342885012969,0.5099611098713517,0.5141968567705226,0.5035133785423422,0.4744668145333284,0.43165264159405803,0.39683176020849853,0.40914920588312986,0.45716219625948584,0.4764243636732335,0.47363780096194485,0.4613161563478627,0.462406095977026,0.46302786858158074,0.4630287200820944,0.46304234495762664,0.46700232857519186,0.4863804414531421,0.473074431588715,0.451373487387134,0.46240604770335514,0.4860979575484934,0.501776533522015,0.47852505865138006,0.42353033428461595,0.3580282926413245,0.2809045994712851,0.2024390872501498,0.13614469580428734,0.0845990357604709,0.0934686633230486,0.13823461561800654,0.17493068157341263,0.2065260179082129,0.22958281202540753,0.25551421979965827,0.2677369072799265,0.24979908884357327,0.22619846075846173,0.24983641267820023,0.34515222392175016,0.4424563397530439,0.5314141103738055,0.630059396872384,0.7299289674970568,0.8296182399541219,0.921789614049954,1.0,0.9877487612263613,0.9026102844667929,0.8123354694980192,0.7226226285224051,0.6298598044667769,0.5490859537035497,0.505879211633014,0.503243394007681,0.4839325365845628,0.47777842691293815,0.4763367604430866,0.4588710711958277,0.42607956515712964,0.4022505092149582,0.41280261932049545,0.4506746676826072,0.475673553020167,0.4755798047093265,0.4765704354344624,0.47295920422163196,0.47316333765832574,0.4818796528551412,0.48045585102250277,0.4849386436293037,0.4889827994999427,0.4881366889999379,0.48777075849402074,0.48966076960288074,0.49193803017039217,0.5164004069605945,0.5087068419860956,0.4669135958194346,0.4002078985252999,0.33304366759035764,0.26076558283538587,0.18596253496209458,0.11547644094371012,0.07378681440052226,0.09510067779654996,0.14828882806158994,0.18663968257632968,0.21717961344224213,0.24412564496271694,0.2571442350583668,0.26192726749708184,0.2656939297484757,0.30260982635230693,0.39451484061587827,0.4941333280830871,0.5860365541868928,0.6794895562683738,0.779257606248938,0.8779934111937502,0.9619342543641318,0.9837285041131509,0.9035610887565126,0.8098816407047225,0.7197933901537326,0.6323795636996854,0.5507963029739997,0.5079223847197949,0.4889738065510425,0.4626490977949502,0.4531154641393944,0.4682081507603546,0.5330954324389685,0.601648124022053,0.5452068333261919,0.45689637007214756,0.35915918864936147,0.2830400088740088,0.2554532918510062,0.17662745610907749,0.07788623127175454,0.008399130988405723,0.0,0.04453227540560212,0.13917150369522568,0.2294668362404697,0.22175500399668513,0.16283105196105518,0.08649520876229078,0.013749975998786468,0.003949015639507447,0.04815682977770175,0.1380230574672936,0.19738361171328345,0.21875489206131427,0.2117213174558712,0.19127453209852918,0.1598252008954124,0.12626972821129412,0.07804419301277132,0.02837381258908156,0.02184124576642965,0.058907622630867795,0.11903441387939973,0.1921743909606919,0.26682986509402706,0.3399493605760804,0.41218637112785084,0.46005460141578647,0.4594969316887836,0.44378014869612503,0.44243320604459013,0.4424313598730283,0.4424313598730283,0.44243110938579466,0.44180880745419726,0.4317512797526537,0.4221096292736104,0.4297649313208578,0.43192169047791085,0.4384683061219463,0.42100639474736923,0.37977837978807694,0.35155776216854173,0.3551417976005182,0.384911623253537,0.4193613998858039,0.4296481633225202,0.44082453508031705,0.4466754796325749,0.4560646579513037,0.4551067722318751,0.4960967852372269,0.5694367010097157,0.6314611292502206,0.5716202900012255,0.47221079247772524,0.37488943635600247,0.2859396519207662,0.19017276780613201,0.13432182767083845,0.15801377460244348,0.20109702474860924,0.21737013692149576,0.20696830762913532,0.18175473493489003,0.1567149062083324,0.12079544591693647,0.0802897733381891,0.04204584118830601,0.03884768264331262,0.0829509700866371,0.14861360437946836,0.22275470969638222,0.2968936528058199,0.3668619117525962,0.42610666249923224,0.45102934836759134,0.43215249777025777,0.41470681306659385,0.415050240359784,0.429251278115129,0.42456343790806805,0.41983520277231445,0.4181408625321166,0.4170748748376254,0.4266783435420547,0.42053183929038074,0.41351241225866664,0.42210429451845366,0.4257570448899157,0.39707186790736104,0.3528146619680639,0.3427067610047305,0.3709675421337293,0.41104163344452704,0.45193697864144644,0.46297931475228893,0.4665846253925565,0.4601066358189887,0.464232794416402,0.4718712166957677,0.4959439603290896,0.5737284078887135,0.6321530643241298,0.5657180489894782,0.46618702693851066,0.3710808884865986,0.2807419557290678,0.1925031078257069,0.17085437570881368,0.20896156050179826,0.2224029142274424,0.22398248514974028,MI
0.2676564525585192,0.2760482563921207,0.265263278353133,0.23380526237566235,0.27177558276139724,0.369372258649729,0.4657179945305461,0.5552291720387004,0.6542904736276887,0.7541596122806951,0.8526989293918312,0.9405583538373885,0.9952867287524501,0.9415586558011304,0.8436757746718548,0.7481214697562293,0.6588367798790897,0.5739435950723664,0.5171354650299804,0.5133376498869429,0.5044342885012969,0.5099611098713517,0.5141968567705226,0.5035133785423422,0.4744668145333284,0.43165264159405803,0.39683176020849853,0.40914920588312986,0.45716219625948584,0.4764243636732335,0.47363780096194485,0.4613161563478627,0.462406095977026,0.46302786858158074,0.4630287200820944,0.46304234495762664,0.46700232857519186,0.4863804414531421,0.473074431588715,0.451373487387134,0.46240604770335514,0.4860979575484934,0.501776533522015,0.47852505865138006,0.42353033428461595,0.3580282926413245,0.2809045994712851,0.2024390872501498,0.13614469580428734,0.0845990357604709,0.0934686633230486,0.13823461561800654,0.17493068157341263,0.2065260179082129,0.22958281202540753,0.25551421979965827,0.2677369072799265,0.24979908884357327,0.22619846075846173,0.24983641267820023,0.34515222392175016,0.4424563397530439,0.5314141103738055,0.630059396872384,0.7299289674970568,0.8296182399541219,0.921789614049954,1.0,0.9877487612263613,0.9026102844667929,0.8123354694980192,0.7226226285224051,0.6298598044667769,0.5490859537035497,0.505879211633014,0.503243394007681,0.4839325365845628,0.47777842691293815,0.4763367604430866,0.4588710711958277,0.42607956515712964,0.4022505092149582,0.41280261932049545,0.4506746676826072,0.475673553020167,0.4755798047093265,0.4765704354344624,0.47295920422163196,0.47316333765832574,0.4818796528551412,0.48045585102250277,0.4849386436293037,0.4889827994999427,0.4881366889999379,0.48777075849402074,0.48966076960288074,0.49193803017039217,0.5164004069605945,0.5087068419860956,0.4669135958194346,0.4002078985252999,0.33304366759035764,0.26076558283538587,0.18596253496209458,0.11547644094371012,0.07378681440052226,0.09510067779654996,0.14828882806158994,0.18663968257632968,0.21717961344224213,0.24412564496271694,0.2571442350583668,0.26192726749708184,0.2656939297484757,0.30260982635230693,0.39451484061587827,0.4941333280830871,0.5860365541868928,0.6794895562683738,0.779257606248938,0.8779934111937502,0.9619342543641318,0.9837285041131509,0.9035610887565126,0.8098816407047225,0.7197933901537326,0.6323795636996854,0.5507963029739997,0.5079223847197949,0.4889738065510425,0.4626490977949502,0.4531154641393944,0.4682081507603546,0.5330954324389685,0.601648124022053,0.5452068333261919,0.45689637007214756,0.35915918864936147,0.2830400088740088,0.2554532918510062,0.17662745610907749,0.07788623127175454,0.008399130988405723,0.0,0.04453227540560212,0.13917150369522568,0.2294668362404697,0.22175500399668513,0.16283105196105518,0.08649520876229078,0.013749975998786468,0.003949015639507447,0.04815682977770175,0.1380230574672936,0.19738361171328345,0.21875489206131427,0.2117213174558712,0.19127453209852918,0.1598252008954124,0.12626972821129412,0.07804419301277132,0.02837381258908156,0.02184124576642965,0.058907622630867795,0.11903441387939973,0.1921743909606919,0.26682986509402706,0.3399493605760804,0.41218637112785084,0.46005460141578647,0.4594969316887836,0.44378014869612503,0.44243320604459013,0.4424313598730283,0.4424313598730283,0.44243110938579466,0.44180880745419726,0.4317512797526537,0.4221096292736104,0.4297649313208578,0.43192169047791085,0.4384683061219463,0.42100639474736923,0.37977837978807694,0.35155776216854173,0.3551417976005182,0.384911623253537,0.4193613998858039,0.4296481633225202,0.44082453508031705,0.4466754796325749,0.4560646579513037,0.4551067722318751,0.4960967852372269,0.5694367010097157,0.6314611292502206,0.5716202900012255,0.47221079247772524,0.37488943635600247,0.2859396519207662,0.19017276780613201,0.13432182767083845,0.15801377460244348,0.20109702474860924,0.21737013692149576,0.20696830762913532,0.18175473493489003,0.1567149062083324,0.12079544591693647,0.0802897733381891,0.04204584118830601,0.03884768264331262,0.0829509700866371,0.14861360437946836,0.22275470969638222,0.2968936528058199,0.3668619117525962,0.42610666249923224,0.45102934836759134,0.43215249777025777,0.41470681306659385,0.415050240359784,0.429251278115129,0.42456343790806805,0.41983520277231445,0.4181408625321166,0.4170748748376254,0.4266783435420547,0.42053183929038074,0.41351241225866664,0.42210429451845366,0.4257570448899157,0.39707186790736104,0.3528146619680639,0.3427067610047305,0.3709675421337293,0.41104163344452704,0.45193697864144644,0.46297931475228893,0.4665846253925565,0.4601066358189887,0.464232794416402,0.4718712166957677,0.4959439603290896,0.5737284078887135,0.6321530643241298,0.5657180489894782,0.46618702693851066,0.3710808884865986,0.2807419557290678,0.1925031078257069,0.17085437570881368,0.20896156050179826,0.2224029142274424,0.22398248514974028,MI
0.6808125348066416,0.7076879037647557,0.7152881415307177,0.6908494244621657,0.6753004864044647,0.6401516616675402,0.6166361081505447,0.6529884250265692,0.6698667010083352,0.622392337543707,0.5476583426956512,0.4695360941378488,0.3932418097273711,0.326946810997492,0.30040376147996395,0.3743324917083317,0.460080196723313,0.5484350502699094,0.6333893514485365,0.7098074522058302,0.7959566957076496,0.8803445078393746,0.9255008119214951,0.882930948735297,0.8174039556719599,0.7735592338674884,0.7308997930035208,0.6829293114434862,0.653790681465414,0.6443650648698325,0.635067802560956,0.6000597441048958,0.5437411035822621,0.480294673071441,0.4169050494604356,0.3672657006558784,0.3853882761004912,0.4398987474721796,0.48422551281431914,0.4665227740363087,0.3944583980001555,0.31624451702342604,0.23821324394646926,0.18104887668933323,0.197480010230217,0.28082167053484297,0.372129909636739,0.4635265234833552,0.5547767696853274,0.6416390933321723,0.7286257532595184,0.8131882467289977,0.8630319046013128,0.8264279212412435,0.7654370851948797,0.7368438014906644,0.7071900313052999,0.7137723517164563,0.7540524973107141,0.7636388532890943,0.7745426948099146,0.7911376076187071,0.7633261834591469,0.7114098500924788,0.6492201113102005,0.5841869531992148,0.5505545839735193,0.588055811531216,0.6363106201092508,0.6486408204544343,0.5951633823341518,0.5211641596935466,0.44231456421642057,0.36498004189440336,0.2982459643376092,0.3001397043892644,0.38383113632585664,0.4688568293521225,0.5585809462755171,0.6497543528852714,0.736144047450445,0.823936236075465,0.9125162101704256,0.991508962698102,1.0,0.9332580668792345,0.8659386607898141,0.8174659957269776,0.7821208868412415,0.7437568641682686,0.746461138454992,0.7559870181166357,0.7307584899341211,0.7092736399377888,0.678065141089937,0.6298224547485358,0.56561079432849,0.4994497449015405,0.43558817169006736,0.38446950217958786,0.4012904165851212,0.4491465673942878,0.45645044042609695,0.39902860780439253,0.31860094539769124,0.2395193847110304,0.16963802212469004,0.13154573472216136,0.19052407709569508,0.2800983915654789,0.3650388420526154,0.45536321054272677,0.5467565197429178,0.6381219188062683,0.7267591012224726,0.8089346043461603,0.8432774147462931,0.7957097106108693,0.7340170196524269,0.702190988101864,0.6706377368275507,0.6631034073813764,0.6874386751460382,0.6945802184172787,0.7158000882638857,0.6990885956761446,0.6708833829284075,0.6585953596517486,0.6288583295817525,0.6156643485814979,0.6591212585341246,0.6888129071842295,0.7241819006151125,0.7488201079062449,0.6823249729453278,0.5932326348948083,0.5077163179569251,0.41884503573829157,0.3275264767479218,0.23944219283465817,0.15342032049414533,0.06692981616181715,0.0,0.028978920501988803,0.10265520720635846,0.1647357041029769,0.23075095217165353,0.3071538565823675,0.3821444595795811,0.4232844075648472,0.38635687757258896,0.3514041961980383,0.3735079753454731,0.431483290836856,0.49811592013055694,0.5665413824510637,0.6253571415871484,0.6686988033651968,0.6921740456113608,0.7190369026649444,0.7260761803035649,0.7002488955032091,0.7223346411222213,0.7644013215049517,0.8017665103350571,0.8490211770420799,0.880383137101485,0.8135451606633797,0.7231205633351594,0.6377364658348805,0.5486489463646123,0.4577789708449631,0.37237118832080895,0.2835869099870105,0.19770490959087939,0.12626216943829982,0.14416138704137693,0.22229173657762535,0.2979887274249813,0.3657836157700016,0.44301430622895155,0.5216527262408344,0.5913173404582579,0.5998029836986187,0.5537044144817149,0.5193573346476237,0.5485381471059569,0.6098712034894163,0.6726877647154528,0.7300919292336696,0.7603733561800843,0.7409283285025248,0.7321094707883566,0.7153893586838929,0.6717407735888683,0.6631877767292671,0.7024131702029546,0.7289040672647178,0.7693455757288774,0.7708683451379357,0.6955092845033743,0.6094622581162115,0.5216681007855282,0.43066968979373543,0.3448073332542969,0.25637613474623344,0.16654488961050617,0.08247417911786925,0.024460909735752434,0.06498836432367194,0.13767493395371533,0.19933819626845017,0.2760102985700179,0.35858777896912164,0.42900705587831545,0.4414810474464077,0.38766477154530343,0.3403848724498475,0.3335221381753428,0.3808553455593695,0.444217364059587,0.5111676084409413,0.5679065864554458,0.6060052507980884,0.6185844260568454,0.6285113136705125,0.6408323353081975,0.6900198976622884,0.7359622663242831,0.7774534355745821,0.8302563078569956,0.8223140541612812,0.7395624844318953,0.6512360058392794,0.5653717322689744,0.4746366028105178,0.38879673018264715,0.30100273949176204,0.21637368852509442,0.15155597706220592,0.18395145500766374,0.26043357225502617,0.33101186620572975,0.3990316043988493,0.4775452272434386,0.5601817227611658,0.627511320168332,0.6237533609365045,0.5856602038630647,0.5931321664302651,0.6313652982968805,0.6627389607835115,0.6886513646341854,0.6768390202554351,0.6455479462056326,MI
0.7360287987884155,0.8116164347422257,0.8345391756025848,0.8284783707048615,0.8017586069532041,0.8083882435888348,0.8299395600168036,0.8009157702010348,0.8135853759491094,0.8334322822847855,0.8327399267442197,0.8561403006098831,0.8104221816018069,0.7281515477133111,0.6244882098218087,0.5507919081599417,0.5209259315669281,0.607335400949593,0.687300820670091,0.7817308178425706,0.8217201370009293,0.7982290522552078,0.8216183653925611,0.8037639328067709,0.7954978591712867,0.7794142128065622,0.7524329386733668,0.6577918577363993,0.5301789965350472,0.376841946178736,0.3152863179906644,0.45880344499309134,0.6148822620397918,0.7754003581184761,0.9040445774631523,0.9109147228375662,0.814531114709959,0.7608573639339551,0.6576401117638508,0.6094816035519668,0.667873384473928,0.7213261900454184,0.7520619066276608,0.7462291287500329,0.7609402813711728,0.7729190976263447,0.7921585148327428,0.7518740789126794,0.7564025312917297,0.7568546657882655,0.7729376443417553,0.7645916938683457,0.7571884651966525,0.755101382541961,0.6723579309707524,0.5651705937976783,0.47865982187746114,0.5131879319610957,0.6041154237149065,0.6845768519571931,0.7455832161196958,0.7407333767330768,0.7912931884496568,0.8120628050030336,0.858626139904143,0.8715116942050556,0.8361929191270101,0.7962205794630104,0.6883147355620731,0.5527148114991003,0.571332641174569,0.721494242700778,0.8689293967229967,0.9999999999999996,0.9970765527986214,0.8828305943259935,0.8045104271083532,0.712768968141154,0.6671904494472627,0.6864311413074282,0.7480488185936349,0.7409305764987413,0.7257805630573819,0.6981619828393746,0.6798825041302812,0.6473690959634593,0.6228132488036393,0.6252396361765276,0.6229806712951045,0.5897171652221602,0.5839449573136295,0.6260155343209122,0.6509061494687125,0.6392708105653582,0.6200708090198987,0.568980383323145,0.45968916133544946,0.47711462067719657,0.5549382390073601,0.649559513542576,0.6776271784207828,0.7023726888375452,0.7424234980359148,0.7414240100934282,0.7272523087623228,0.7668370550409667,0.7247348495719588,0.6938371280480653,0.6269287124450051,0.5198432185959381,0.5579414703466301,0.7098297590676599,0.8413273274039921,0.8603393039200449,0.7700833811495085,0.6796985264066708,0.7195607911501196,0.6231060495519007,0.49829161194262683,0.4156375249864026,0.2471005274249598,0.07590473369173178,0.0,0.03964484505594701,0.18973472660962543,0.3660546367914268,0.4196267948074097,0.28641017466562024,0.13197830155331092,0.01965353177204321,0.03054260144447829,0.15583611169515477,0.2946857613203928,0.41949284959241107,0.3397290269641342,0.16148279724148917,0.027919352777807216,0.012048020841316287,0.1006485318268373,0.2758311528781352,0.4352231939769555,0.5056394154764008,0.5535632488747537,0.5432605260101808,0.5971673401150288,0.5771901728557087,0.5601433709456276,0.5467759253033369,0.56298390416918,0.5099509393641806,0.45610212830468244,0.36398930247966055,0.3172413606336244,0.3531271664632567,0.4696956291764809,0.49313442794021656,0.5021658384352921,0.5192684444739784,0.5079025254831264,0.45470774348908405,0.3867900336398473,0.4272883325530672,0.46955059560717105,0.48386494863536855,0.5030705298263167,0.533675148812994,0.5615800665891801,0.574837426213755,0.5776151096594604,0.591688881159667,0.614316225452312,0.570267288868266,0.4959760481164355,0.5220025252803269,0.5227539645808732,0.618834846533558,0.6737862785461926,0.7551142027968578,0.7329786665571842,0.5825296169628369,0.43888670958761766,0.29903783572985887,0.27760932242589753,0.3946186310720443,0.5516256237266899,0.6839503117159276,0.6909570762830985,0.6654303735709193,0.6942174926696363,0.6239557134976415,0.651757798128441,0.6268292850428847,0.6070889357496099,0.5587921971587,0.46605943446935116,0.3661392904703118,0.3354211326602776,0.3149357837047302,0.42119531861315407,0.5266411481096074,0.5726894175362118,0.584621879199132,0.6136011179283343,0.6330099422112796,0.6006315479755364,0.6388823517490896,0.5917690832098317,0.6220174426309382,0.6302340696234912,0.6541285638254766,0.6290558804416384,0.6328303469791563,0.589718367278603,0.5592958779243618,0.49252389437701316,0.4950032112901428,0.5626295941044055,0.6371214335651056,0.6976467487823448,0.7655546808532967,0.6534774987888015,0.4956673799544311,0.34248680851617763,0.19934453469164337,0.1308932618225933,0.23133609439830582,0.3863574185839642,0.53609124486553,0.6100592552759525,0.6323706703561878,0.6707018154470927,0.6453236533299331,0.6273863614448136,0.5731980709109092,0.6197966803317727,0.589639517262015,0.4991002458570519,0.4050864360719397,0.39401901540940587,0.43287857500798976,0.5388217840444498,0.6452455388155731,0.7057765015342965,0.6939664119343996,0.6917159526720202,0.6767125010854911,0.6474550864474522,0.658103628862468,0.6380951745171273,0.6342403743704499,0.6774791420705291,0.6467679835076487,0.6778064884981698,0.686481330624868,0.6061520458920513,MI
0.8198604555528699,0.7768171543474582,0.7576836737487196,0.7728833333029974,0.7990868541989808,0.7847549271817762,0.7809941343420612,0.7657246416334749,0.7729183536493816,0.7789193058426327,0.7857548312448559,0.7948329645102241,0.80975563501514,0.7930561655099733,0.7852220810712351,0.7585654975053977,0.7344617001764453,0.7014950762554704,0.656642091437853,0.6124289991761551,0.6266780497292634,0.6866813835058294,0.7557389268868624,0.8227645750758508,0.8842182613039973,0.9431708563065864,0.9806086606707352,0.9885918025501046,1.0,0.9918527352002049,0.9488441488470989,0.8787403238733185,0.7929672338327869,0.7017312244815503,0.6159422443415763,0.5178180165941475,0.43002899581423604,0.42498219076095856,0.5123424123071834,0.6062875139552926,0.7018944329292736,0.7974123563705544,0.8789135526168788,0.8854794333023204,0.8617695481785912,0.8413686964485376,0.8613548710877401,0.8674267315326105,0.8388973096945325,0.8241694914302404,0.8218788723815869,0.828707155966312,0.8233893932798946,0.8217823298058837,0.8274986896910779,0.830456881596064,0.8152434426054627,0.7939903052767621,0.770109138741943,0.7361368725453907,0.6975632920320884,0.655438108411639,0.6464227661974058,0.699249504040909,0.7671573336462263,0.8346879910238978,0.895499908999756,0.9473277098757173,0.9677889854981077,0.9683497995239905,0.9673355735045237,0.9467273958916591,0.8840040049928315,0.8050350522619372,0.7173289671160261,0.6242397453179547,0.5243205869101835,0.43084393879050165,0.355451012697102,0.3912493218181039,0.4858466860697046,0.5838994086835725,0.6778526214704557,0.772270182599347,0.8383853915298478,0.8179275828232604,0.7791748106437519,0.7663005506039777,0.770020356704118,0.7961625124727245,0.7672740234763546,0.7504708889102818,0.7559812635270315,0.7482165875225721,0.748683325186525,0.754750641431408,0.7700228342463649,0.7727025732287567,0.7701208397989183,0.7572370799153916,0.735380593995778,0.7056851003947364,0.6675833458817566,0.6265737516297154,0.603611474188769,0.6500667603366583,0.7151105720733715,0.781528312556103,0.8478771306530781,0.9103896532155553,0.9454180158318728,0.9550517710994608,0.9667141079237078,0.9539429852825476,0.9183620071143599,0.8519958122889562,0.7656347612576284,0.6765654252471602,0.6096435132701736,0.5188732424324805,0.414326806620283,0.3382143510554063,0.2581569434703943,0.20919896652332337,0.2567012044545507,0.31643922736945473,0.3678934867610102,0.45926148584831683,0.5569259831952538,0.6511113272572331,0.7459675582135756,0.8299469530063437,0.8921276993781735,0.9117665643224138,0.9059463405395269,0.8863251695402838,0.8463248547364772,0.7767248898052124,0.7093564919723909,0.6449205612671896,0.5846275811104449,0.5441874601189034,0.5587686188834264,0.6019441807137249,0.640379518335394,0.6705041398580391,0.691646138264367,0.7157332216245917,0.7308619373066554,0.7226975408349032,0.7120682832774006,0.7002369240134874,0.695888565567405,0.7052662296548187,0.7030145182276657,0.6984653863480874,0.7214419328750497,0.7111298805107422,0.7140978550055554,0.7281458695234835,0.7327753500752947,0.6547824431478615,0.561314469299842,0.46041226674943614,0.3674555950783551,0.2753704927745333,0.18371971984253577,0.08311741791892491,0.0,0.01292896425711243,0.09973071462380068,0.18546938236486454,0.26010228589182516,0.33241282225569124,0.41534894403093636,0.513722645211554,0.6088903994020072,0.7064677213166175,0.7992213618605586,0.8775174073621206,0.9111278816908936,0.9214090859754194,0.926073109439316,0.8961396045060357,0.840091883807367,0.7791114233397547,0.711867527818904,0.64158665136436,0.5979560085228752,0.5966398565367927,0.6324813763405746,0.6725108895595113,0.7103933204427384,0.7370063715374666,0.762599794840765,0.7792676363702298,0.7807410117887152,0.7684934500198053,0.7698199780879449,0.7749658719751671,0.7803092905286912,0.7825528671637914,0.7889801608916316,0.8013033449796851,0.7884009665580969,0.8001973073894715,0.8227006473472533,0.7960294588924905,0.6992232092181694,0.6054286328293799,0.5086687816673625,0.4152604356902625,0.32248912428663656,0.22928325113017234,0.12796239415992527,0.07732707248327131,0.1430213001381242,0.23586685955948505,0.31660812548075157,0.39972011765574544,0.4897844176412538,0.5915904068134403,0.6858565332428106,0.7830421383879558,0.8668506861729597,0.9320367974996104,0.95741694203035,0.9420440168429911,0.9206823772652504,0.8885939770954701,0.8286190342578292,0.7632994170441361,0.69213079824469,0.6277386559829674,0.571875433582786,0.5460801416363652,0.5755501989384402,0.6238079687848814,0.6653504808815258,0.6940788674651821,0.7196752149377397,0.7373859076519134,0.7528806809906388,0.7471007941024168,0.7432447286563928,0.7349256686541712,0.7307278560864061,0.7186772599662445,0.722805145360923,0.7356609257825077,0.7328737326908321,0.7080720012206161,0.706367817239832,0.7184348552232023,0.7135863877949,MI
