0,1,2,3,4,5,6,7,8,9,10,11,12,13,14,15,16,17,18,19,20,21,22,23,24,25,26,27,28,29,30,31,32,33,34,35,36,37,38,39,40,41,42,43,44,45,46,47,48,49,50,51,52,53,54,55,56,57,58,59,60,61,62,63,64,65,66,67,68,69,70,71,72,73,74,75,76,77,78,79,80,81,82,83,84,85,86,87,88,89,90,91,92,93,94,95,96,97,98,99,100,101,102,103,104,105,106,107,108,109,110,111,112,113,114,115,116,117,118,119,120,121,122,123,124,125,126,127,128,129,130,131,132,133,134,135,136,137,138,139,140,141,142,143,144,145,146,147,148,149,150,151,152,153,154,155,156,157,158,159,160,161,162,163,164,165,166,167,168,169,170,171,172,173,174,175,176,177,178,179,180,181,182,183,184,185,186,187,188,189,190,191,192,193,194,195,196,197,198,199,200,201,202,203,204,205,206,207,208,209,210,211,212,213,214,215,216,217,218,219,220,221,222,223,224,225,226,227,228,229,230,231,232,233,234,235,236,237,238,239,240,241,242,243,244,245,246,247,248,249,250,251,252,253,254,Target
0.9282041928589457,0.6592540202702324,0.6625705271550952,0.5689619492516949,0.6356066214696616,0.6826585355098054,0.7007227605213373,0.7049324252816094,0.4021548917257576,0.2549917710362526,0.5011977363922071,0.6031565317690921,0.9067688658470647,0.7640981806221205,0.650734871639215,0.5727281807527422,0.5636838204730239,0.709610568826994,0.7566375215363177,0.7652214772861665,0.5356060654618009,0.2616071578814303,0.4367224645045491,0.6715283320820413,0.9790907657634005,0.7930463772796319,0.8272366850549133,0.8297711736881368,0.6935764236018418,0.6612296330711889,0.515294939373546,0.5932361610384911,0.551322027999892,0.2224399585995731,0.2410269544185173,0.4989644322170994,0.7556382641192503,0.9442347517037577,0.660330525917745,0.6933120609805172,0.5973235506495724,0.6298521047669619,0.6951131607748238,0.6933362392097999,0.7051145532589276,0.43907725975108214,0.2647188179363651,0.4861924584393389,0.7043199700913219,0.9693448959846114,0.7308962550989202,0.7453184972210547,0.6186552714708169,0.5261430028045719,0.6220559846164413,0.6011130422423818,0.5508565820423703,0.26867654129257623,0.19180220536208914,0.40405862729263564,0.58406833802582,0.8284314783423401,0.5586050032746286,0.5801726831375325,0.4650260969243254,0.41194304943567595,0.48763178121051975,0.41318484067352124,0.3156851134901344,0.19677974072374305,0.23628400186398402,0.5304451614066918,0.763453523622764,1.0,0.7465390011739075,0.8477818261646899,0.7272594437704889,0.5892243897226548,0.6794779029410059,0.6841378389553707,0.5853897135631447,0.5526862582791177,0.5334587548285175,0.426517245474229,0.5539617342592642,0.6962952538281293,0.5315761773998275,0.6948354702560264,0.5401242457548063,0.39992955133288177,0.12416197128106576,0.0,0.15350526965992906,0.26470098186394253,0.3402139111721558,0.2841996109569407,0.23499576948243828,0.4089630828695192,0.35153778684482884,0.46070209528940964,0.47351864435302016,0.2905977848268244,0.09581895031747889,0.014213383866712004,0.3354580072558928,0.4610312547494022,0.4813865438481919,0.41148892313704355,0.37597438933646554,0.5742316230276732,0.49154425251480927,0.6167574578786237,0.5729399307522689,0.36231799827105604,0.11945006844795225,0.21004208013391112,0.5245564736822628,0.5519446980004616,0.5415037381850851,0.4848221142110942,0.43925321006557105,0.5421216647637115,0.47732753680805295,0.6455897540387179,0.47205630528997666,0.2513286518175102,0.01306237593922921,0.2011235174151338,0.4571189614778195,0.3951138745209173,0.37832206991392336,0.5158832013327546,0.5640702053257955,0.7051340156529529,0.5560265571792842,0.6860318025115495,0.622984697647956,0.37411929410188627,0.1362228256098046,0.18356396648283324,0.5228020025393958,0.584435550577977,0.5644357225243128,0.48075694624815846,0.3707162625745708,0.48826766120951515,0.498298482556903,0.6392622772957495,0.4667506535342243,0.3614747615531648,0.10978216190895473,0.20739780829298393,0.5210113972490644,0.536929202266518,0.52453280515169,0.47787452548039955,0.4220797167269046,0.524053430423165,0.45438240856251966,0.6108734765461428,0.4822355982891251,0.24038041400907328,0.015332650326238095,0.19410981259878035,0.4436756013059977,0.41752731812479027,0.443934020749416,0.41779701822359794,0.3299922640222954,0.5769820386284934,0.5722749226078898,0.5250843381115509,0.5614503526641084,0.3777726232434686,0.20737801361023545,0.11345592036703822,0.43235114568059885,0.5590671952754986,0.4919035531266509,0.4425477812524852,0.3428936199930779,0.5154493847561339,0.6495146667336478,0.529204432563156,0.729610866372794,0.5175934071785866,0.34968550802007403,0.1233155534066177,0.20917833864406488,0.5054726944809742,0.5206870651657605,0.4808239607237166,0.360768158794313,0.30900505900770714,0.5417080675354127,0.5348973362095961,0.6409421942533449,0.622647616905013,0.3533722376026489,0.15177591317544836,0.08310868500523805,0.4159687923230875,0.5472591584558266,0.5131232647489252,0.4354995923024978,0.34202293480812296,0.529213623835993,0.6650436261281936,0.5534244564087105,0.5522001791578051,0.6453855947780758,0.6968544934644187,0.6482152053621073,0.3138347677869695,0.2545319108695474,0.45040828384931686,0.6985369890201705,0.9697576334675606,0.7131510186246715,0.7177621166064707,0.5579050038508795,0.5046983285312088,0.6260214502915886,0.6693278939895375,0.6917667409389354,0.4681601901963459,0.24133630735323308,0.44324583624794567,0.6495387505326571,0.9657860391642936,0.7837193579265662,0.7892120468264476,0.6936060660837633,0.5193398656910588,0.589481350656766,0.6232701384937531,0.690541485493255,0.6859146661354707,0.3988000159044427,0.2592497176965547,0.46372478538115836,0.6739427987409847,0.9302921025298527,0.7069259709561244,0.7727834668006075,0.6158143260759656,0.5248782883469119,0.6079644091225589,0.572406121002567,0.612392411736983,0.5119417318777977,0.20032054075440442,0.30108587899096184,0.5561075587145199,0.871897560166162,MI
1.0000000000000002,0.7616454287961683,0.6996288398312684,0.7280725947282554,0.590858910549884,0.29912402662516624,0.15870215031530788,0.3894487202755028,0.71350066431828,0.8700106902146352,0.7316376397317057,0.6707542681379828,0.6948212100571347,0.6288362244862469,0.3891426710197117,0.10480436566188445,0.17069698315221027,0.4613396122615092,0.7833352956965742,0.7852765229651884,0.6660153274904375,0.5886662487161256,0.6199865736143526,0.6155584821143256,0.43647250852902886,0.14639741603559764,0.0,0.23747211244577726,0.5247279131886209,0.6298461159186546,0.589815619723576,0.6245909977587851,0.6003098845953645,0.6423767659507666,0.390028618768268,0.11900976858009193,0.14151015189463534,0.4379161177370725,0.6432253438950328,0.639290224672646,0.6617137289168709,0.7312464941055385,0.713703941431983,0.39931091256104323,0.11629917595803096,0.09800290314416871,0.3906857146714735,0.6207988245604164,0.6575371322145391,0.6289433215538327,0.6848830924302789,0.6387518986688485,0.35911261581271603,0.09737969015431092,0.13972600630515886,0.440561531205961,0.6342071601131043,0.6433414234785555,0.6257282570742604,0.6556795760770358,0.5681259283367559,0.31304530114408813,0.07902977115068777,0.20047814181370516,0.5029056557518095,0.6416515226526462,0.6266870204701982,0.6610919230250001,0.649943798364016,0.6145512276044649,0.3277722361616935,0.10584814660854258,0.24677384042304817,0.5472599497138031,0.6906210774995134,0.6715521286323278,0.6760023606206207,0.7157704842986818,0.5700887580591376,0.25816231425617087,0.03617582116101259,0.18166128393939007,0.47900561223579063,0.617448500052937,0.6300337900956643,0.6065694543799094,0.6671928696778735,0.6188487920468109,0.33853771185661796,0.08510475345397084,0.1489411676485457,0.4514831582891565,0.6386479878968452,0.6409915210887183,0.6145359071852436,0.6544502833476245,0.5962427857063577,0.33717290661461585,0.07865483701142462,0.14106693182998264,0.449265478363581,0.6309157241902688,0.6132212481045245,0.6252585683117158,0.6071475418619239,0.6776856759440262,0.516295760652818,0.22249007933067833,0.09704333684941324,0.33769461755806995,0.6007326631868335,0.6459242384197237,0.6259569371671481,0.6594942376611506,0.6657514836437748,0.3705996208771545,0.07977819509840178,0.03288572726447958,0.31851337620910414,0.5722656301544016,0.6425850394165107,0.6083680008320058,0.6265445280918442,0.6907010227268156,0.5424873673034092,0.25209078142053554,0.05809949362223121,0.23934604850831498,0.5398282811277539,0.6756373479850641,0.6472704520359704,0.6600150363930812,0.6504308570003323,0.4932382282633829,0.2151934062813865,0.08840052931427222,0.32674267515445177,0.5854982700484956,0.6579941147038244,0.6391728252555129,0.6475551810726585,0.6743941656841994,0.5296873795126202,0.2284967592898881,0.023840134776139,0.14238508509366854,0.12033507222423356,0.27813649659071227,0.5871906857197724,0.8965718261864988,0.8187115492486432,0.719147274352703,0.7145640707742495,0.6887699628021033,0.466975457943964,0.19615741164234657,0.2654973427760883,0.5524470438076303,0.8602119085583599,0.83783691248054,0.7176928604642383,0.7264305214463904,0.7288299725814495,0.5635983904809092,0.25694351695234374,0.1528407198670947,0.39728213879153373,0.7277532791176269,0.9491658568320063,0.7647105812962136,0.6775205787286398,0.7083072211538564,0.681015008389595,0.49467530167246854,0.18554280383441246,0.11356829616587483,0.3808327163921157,0.7379200440235196,0.998973561160519,0.7959222013841096,0.6916516658311298,0.7107379831308622,0.6666616863143944,0.4119410314880718,0.1743270294571384,0.3148542739018294,0.6246780252932662,0.8841978092979439,0.7622715285168582,0.6842304931388827,0.7044135339998732,0.676851388569671,0.4615543030361604,0.1722498255414031,0.22307372345052556,0.5083824988553316,0.8243023462056158,0.81917810458525,0.6953077652311535,0.6923605235812655,0.7269504429150302,0.6080960638725605,0.3165986560733427,0.12379166514279305,0.3165203175434703,0.6351034883234281,0.9524469886574003,0.8259782726776861,0.6930474007453913,0.6828409198273191,0.6947808130684783,0.5766453089235146,0.29189173966445026,0.11048384680520096,0.31628949384559646,0.6445226112121671,0.9778937020776757,0.8654943904198185,0.7467313287232045,0.7399261963504278,0.7466593449173307,0.5753412521655641,0.2759904764775529,0.20673224596541462,0.4669597432447026,0.8041395401796565,0.9088572828855457,0.7560157896717403,0.6919705300316668,0.7064390496486241,0.5822577177152859,0.28571085976535393,0.1578180871031427,0.3919193469920017,0.7059037544613067,0.8707082250946268,0.7425092507466531,0.6871395506523481,0.7308338529052143,0.6666804098262922,0.4214824109442692,0.15517410982839563,0.2541148650573468,0.5531465009036163,0.9031220294181479,0.8917436266733836,0.7350173405144977,0.7074410824377548,0.7330162620791991,0.6475521596534513,0.38454532651187745,0.1363677141334343,0.2714265291990836,0.5822815767685798,0.9469654912526757,MI
0.9999999999999998,0.9632676809566887,0.9599949647070452,0.9435408491574975,0.9372424533927408,0.9247982819504041,0.7209567066245492,0.6473317223834743,0.8391999485911394,0.8994776500309498,0.6166387961031472,0.5534399786442672,0.886263880287818,0.9832928060569419,0.9756656891752022,0.9695014946040985,0.9540971930011539,0.9449298564680075,0.9070775001432845,0.6832544742134363,0.642080428747295,0.830500064403936,0.872146068894833,0.6411548813566155,0.75646482302165,0.9671673493501445,0.9498979147776747,0.9512313070956651,0.9579046569957421,0.9656794014299621,0.9324358704744264,0.7148242947837773,0.5766105467549882,0.7413375613077768,0.8183017228458656,0.5792868993640048,0.4963335756188103,0.7996601584054368,0.8027029296580286,0.6362506978165434,0.48277238225172403,0.5721810432825212,0.4901196786332176,0.7184120088459118,0.5862724621382336,0.15019060782484916,0.0,0.38161626166272744,0.7247302504037256,0.683080766026221,0.5113446159928281,0.6285548802033993,0.8693762718587064,0.9175304487835108,0.9048879153220974,0.9006868601068281,0.8881643972140332,0.8729551390058037,0.5572887421582164,0.12665360487350363,0.14352312545431345,0.5701550221013425,0.8107914578069317,0.6838442684040322,0.5276422910887375,0.706548392337542,0.8857819861860008,0.8965065440933786,0.909191928428353,0.9248894026408034,0.9141354158642196,0.9096287135913752,0.7248768333186508,0.2817655219357411,0.07854768621488861,0.4325558633779061,0.8041289860850964,0.7975847827011575,0.5978014123797506,0.6181516695124489,0.8480233972541289,0.8863587705978915,0.8861442075064441,0.9040629806542524,0.9117789565770871,0.9061827681458421,0.8205352955501606,0.4037311848409264,0.08622142088097107,0.3465778336534895,0.7649170934234382,0.8528653081772808,0.673918271994643,0.6148534840578344,0.8406619780023676,0.9192171047741622,0.912327649301991,0.9150203712368914,0.9247833292406094,0.9051749330023215,0.8851218625987551,0.5380605992170973,0.13810083187452316,0.2534351251453746,0.6767204151395905,0.8273803431540718,0.6649940721284457,0.5657698353672693,0.7819917621004582,0.8997932423897537,0.8809935829856268,0.8876974730022036,0.9028197566853924,0.8974469055660441,0.8698081330083534,0.5273293724478343,0.11577389555804607,0.19725374003816443,0.627765391607976,0.8353706849913112,0.6872619071799302,0.5110103350956312,0.6719206928377461,0.8752321103418514,0.9052339957443418,0.9125271433485092,0.923458475384076,0.9168487665406906,0.9124703318871477,0.7794350958300471,0.36417378291266234,0.06674766698643397,0.33285924895546515,0.7420873269450141,0.803487209708927,0.6138655879166692,0.5480893695637568,0.786190991008975,0.9001854428263238,0.895867657332275,0.9021474242916818,0.9150474714875283,0.9173659386853894,0.9043022200118231,0.586775424947749,0.15944656487415143,0.18488648633051552,0.611945625760965,0.8547408536699888,0.7309256280235024,0.5733670283061314,0.7310975424404804,0.8951184616333647,0.8975834339212574,0.9032947669730482,0.9185961575608841,0.8975656932951466,0.8652348308163418,0.5336586710294828,0.11314408008899957,0.16200466993126184,0.592004428966691,0.828255959737435,0.7035607258797727,0.5394118368032164,0.698752567438859,0.8795930345198364,0.8938307419735334,0.9160222559851465,0.9253430726662015,0.9027835116070471,0.8557493180465487,0.47942799175060724,0.09294887494670823,0.2404474571597346,0.679048045836562,0.9072962378991727,0.6571246950028877,0.5418664125992643,0.8845899115209714,0.9758886791041832,0.973186201036899,0.9659623581633812,0.9470291705693195,0.943656199137471,0.8604650875570556,0.6388411742298625,0.7065064462409294,0.8771766727027039,0.8004241855823386,0.5281737237761985,0.7584852052671984,0.9648413500163604,0.964422704698997,0.9694961855707576,0.955948219941132,0.9527473542307467,0.9372921814150288,0.7553305142954023,0.6535097910352656,0.8344804755028583,0.9224856541550424,0.7038478425448387,0.7486249361653281,0.9889374150516652,0.9822606922760178,0.9623584636756435,0.952718971637011,0.9525118101300694,0.9549397135651005,0.8261057756867907,0.6117502599061355,0.7276990994082697,0.8859232669975825,0.7666959851825548,0.5241324139910053,0.8051028937555309,0.9927013729361487,0.9754012395602409,0.9730303805040366,0.9709104653868084,0.9579407663439417,0.9446066924193655,0.8166115357974031,0.5994606491716723,0.7090096959755896,0.8841378145433556,0.7960782248031999,0.579618298920356,0.8434427356329726,0.9694164379639798,0.9589400376921777,0.9423454753975748,0.9289172774002796,0.9455956269765082,0.9402668133776142,0.7400533096761968,0.638281341722285,0.818395109431808,0.8977543771322465,0.657482469410591,0.6642855557445124,0.9651216668428286,0.9776710954753678,0.9802011321282766,0.9701955529405668,0.9669500806292002,0.972317082970575,0.926683108748428,0.7055989726096634,0.7191330252058623,0.9012322455594857,0.8781869422112754,0.6480301348400181,0.8627591005518587,MI
0.8958349043763314,0.4165737731853132,0.06569618510035058,0.20468299991545358,0.40207282488969387,0.49317493419243386,0.595280111614874,0.603374088177032,0.6074356255436566,0.6729448065161816,0.5956118009958558,0.33945601897254285,0.2894807505910162,0.5567866927275849,0.7938174234807911,0.8652969567750608,0.9372964109448976,0.8922543818694741,0.8293495469868901,0.8322835051783875,0.71947566523176,0.4768105324443863,0.26892030236985365,0.44528713232389006,0.6110653263585548,0.6772655216311056,0.816274814960289,0.7468722426530743,0.7110564324239874,0.6868940320183983,0.6151635485201248,0.7077968472421556,0.5575679764740307,0.4689399105853336,0.4753457080404919,0.2950891910954927,0.15678282429406254,0.40673855379198365,0.6349932935941731,0.7399290691734053,0.710261030778292,0.7911900369617015,0.7966670109765128,0.6768432599904828,0.6966051755731137,0.4790759580272379,0.19995627297280638,0.18109838243202914,0.4516650683830927,0.560936767264141,0.5214134884838391,0.48163874287791897,0.5107543881335563,0.31456550007729067,0.3512894724269766,0.2200973394347132,0.0,0.005792273037140472,0.45798204592328773,0.8546038414746051,0.8234540779082753,0.7270605912162922,0.6922368655948441,0.7914454982190726,0.5945235723264721,0.5777935798825182,0.5199471001366178,0.3086259063662635,0.18742635269547403,0.4502688889586559,0.6359764422077845,0.6233079609923351,0.5491540678297238,0.6376305580763559,0.5576923701777932,0.4992809527236015,0.5200613125121794,0.3377295896751784,0.1925872207516246,0.42699842128025356,0.6304768600233448,0.6091169271619914,0.5404776839588727,0.635116352419653,0.5708479245341742,0.41399065928831513,0.48559403314918814,0.32620714368177683,0.15218982117670254,0.3401202900710967,0.5966364630430863,0.6448959387337356,0.5820784331935447,0.619456578933955,0.6117262836496935,0.4421596164631385,0.4914916474638904,0.35959710759696284,0.20006778372689782,0.3732370544435737,0.6337259240355624,0.6883036149098296,0.6280396337230543,0.6672927889130578,0.6251983247109161,0.476995264871074,0.5724894182137343,0.44457679242640324,0.2437907182407253,0.3329648727710439,0.5970593767999319,0.6284688531901135,0.5715832216675114,0.6161689942339468,0.5606808318485457,0.4119304317881567,0.4835511600235547,0.3319369844993618,0.1361880425771136,0.30378621380223336,0.5945116639691364,0.6731822774031997,0.6515510151436077,0.6727234779776214,0.72823292065504,0.49901376252132046,0.5578256662507104,0.49697385663561233,0.2860023733135346,0.20407379499469913,0.47826118138380025,0.6321621260207935,0.6136112558417115,0.5779819224034988,0.6622351772199999,0.5214390989348279,0.5126568706310195,0.491980813363071,0.2882082197060196,0.1493904832656039,0.3860553213614111,0.5897842359309897,0.598022874659446,0.5519140351967695,0.6480251518131053,0.5176292358482657,0.45368919830343746,0.47168691859163037,0.30387096193935736,0.20296361979669264,0.4689477987643871,0.6628330697736162,0.6728146552905376,0.6057236143043099,0.680580790843063,0.5676239417762785,0.48612795286114086,0.4874307460008023,0.40145425974430626,0.5414145029652375,0.6520829970399888,0.708472911403224,0.7983880302302606,0.7153512247079976,0.7644724270702854,0.7684566275356666,0.598632486800156,0.3261431292416792,0.41039918300283507,0.5818545335281202,0.6373098882390069,0.747711157907132,0.7208689797539551,0.6667918286536576,0.7211593547495911,0.6676037862080806,0.40076934895287497,0.30766635807456577,0.5154485503137392,0.667901458141603,0.6717231439283688,0.7702977564572149,0.7129328806554223,0.7101229317815774,0.7495853341637533,0.6452218183018008,0.36749873198102945,0.3813524351371922,0.5920759121636059,0.7218678340271278,0.72743503375944,0.8653817971557358,0.7953552787772371,0.7551834987614243,0.7877588831585935,0.6940959044879831,0.39378101654971864,0.28332866186328154,0.49340312597857094,0.6353991610794165,0.6740040923506014,0.7518873841314768,0.6951969505123015,0.7101311434984958,0.7494182766992354,0.6049686094258422,0.3504403078085896,0.45914198867593337,0.641371819528934,0.6860747340441833,0.7503088266612692,0.7859064429353526,0.7291003054775436,0.7964494499628527,0.7712994589794695,0.6045357090246637,0.3426578828800042,0.4297921915748426,0.5844612951334951,0.6429812886399988,0.7398597461454646,0.7173115256259552,0.7049878219952661,0.7536543458099056,0.7158715442651951,0.47517232074671467,0.28221355422443883,0.45193533521497997,0.6173795457385363,0.6502519041042936,0.7680650571408711,0.7005407760897344,0.6596576944259369,0.7313620397651608,0.7144420670587004,0.4622745530090153,0.3183510731666259,0.5104243427733435,0.6684400097017762,0.6763736391910782,0.7548003920370161,0.6717644155530804,0.6888333214391897,0.747125806315867,0.677004000451567,0.3933686902693374,0.3547336896375479,0.5693967819122978,0.7383722093854943,0.7792459993120175,0.9107819481334918,0.8407052557587971,0.7934231749967453,0.892309375529321,1.0,MI
0.8994303026416488,0.5808318251061992,0.9032143998221049,0.9112298199354165,0.7753531746160345,0.7695147288942188,0.6999863030904097,0.5940677440969058,0.7513508382741367,0.8811978385772679,0.547054783590645,0.63528025966728,1.0,0.9349939594313996,0.9918473608139271,0.9329480534628094,0.6188643949356911,0.38998942501996137,0.584597129707328,0.8166531173001408,0.5719638222602219,0.5494373263173435,0.7664398798439942,0.6769134558436645,0.7573699347997445,0.7575682825467771,0.6559165911471605,0.5509375953137177,0.7200069408210648,0.8178467464873194,0.4336685218463332,0.6036572666354769,0.949083067171439,0.7863258872404844,0.7848016084823102,0.7972323988218672,0.6108554580013967,0.60223850815429,0.7916148266919047,0.7818587189038553,0.4191682625436881,0.6130906540028689,0.8899998100990976,0.80082288062055,0.8255785296424958,0.742324232771165,0.6041494159095913,0.513592883048501,0.5095259724212577,0.12658891583210874,0.0931500032302015,0.046239202353837605,0.13466498748613054,0.4194348497542828,0.577128191411902,0.6605415286814513,0.6012900143496074,0.7046329316720881,0.372165977455611,0.09842152534017723,0.5252073864176601,0.5975516533081389,0.40211975718160176,0.4425261107144016,0.6287821061470473,0.6042915819485133,0.5873787051326276,0.7125962141037228,0.27879698897559635,0.16305849729042565,0.6043082650417229,0.5120547944805338,0.3720393993950952,0.516963168274049,0.5866530125236209,0.5595738651326725,0.47833970835426065,0.5183664449179322,0.16405925936979804,0.1462887018563932,0.580204049893017,0.43836353298281017,0.20513882318690957,0.37035513551253096,0.7257763942195439,0.8250359915724208,0.7606731578105448,0.7982458830074464,0.41992424063537115,0.09745271556166912,0.5559625326602871,0.6294866951939291,0.4548562435624497,0.4558515072223339,0.5832140584443533,0.6097584895139021,0.6592261135944337,0.7241979623520609,0.2804314118581335,0.4104564290189119,0.7489497397849876,0.6245738634925324,0.47947079865815656,0.5845428287208669,0.6636943772997528,0.5832747813586208,0.5601918804385217,0.5050045138800447,0.0202658160558582,0.24331256651576316,0.57494973791737,0.43039874786899324,0.29820227595509685,0.4651608902055986,0.5215275569028037,0.44790669654942494,0.592360528859118,0.45070675837391105,0.02847758196932748,0.41438244449580086,0.645126954969558,0.5400591276216224,0.5080528170379677,0.6466637532895607,0.6789012703746407,0.6238081101756445,0.662617807787488,0.5444642811802045,0.03735753979384526,0.277939416785689,0.6627417327578793,0.4969609902458445,0.3346136970288933,0.5052402143921904,0.6045121402557876,0.5719886018692941,0.6545671178777721,0.44469843945585197,0.07852245381368128,0.4827787646676458,0.5600644492844156,0.3939894496528673,0.4384945496494086,0.620823868660465,0.6430837509894927,0.5911579261470146,0.6837345146096916,0.36207836277901206,0.12662744115572222,0.5881520461487169,0.5864888159506032,0.39820528756535856,0.4386780248605926,0.5864561826945001,0.6260455434839445,0.5919980540426937,0.6622668766374642,0.2290333129251234,0.18751191444693127,0.5982326303002372,0.5367616056188367,0.4260034828069892,0.5885012019162494,0.6552843796224392,0.5804594359380544,0.6184712930988283,0.44539289793492154,0.027233931370735043,0.4150708078609111,0.6328424147097076,0.4661773184738909,0.37992175658328664,0.5458599052360431,0.6359023849653038,0.5890652006426884,0.6378778017398541,0.3685018393151882,0.0,0.41218192101962536,0.3868185505513484,0.6224107397870129,0.8650418189374074,0.7809959977347178,0.8276081228531043,0.768282593007561,0.6242194710332298,0.6849445841093633,0.8505221094689652,0.7303058147573585,0.4649055654719687,0.8010438278611054,0.7845190192442302,0.8151465747714148,0.834045983764867,0.7105350672598458,0.6410843642169284,0.7966859592540678,0.8159782602359891,0.4670968738810686,0.7484329560007166,0.8905760520315997,0.7957875130961822,0.7992213372986114,0.6919884902218052,0.5727754034093429,0.7306927472857656,0.913637748478358,0.6482605265979622,0.7175058625514898,0.9306009680775169,0.7797227435907099,0.8363922040255845,0.813633755106177,0.6697880174187385,0.6178307549449951,0.7855549176769347,0.7667299310162714,0.3616157195204308,0.6617359368172147,0.9004722094789788,0.766838710885771,0.8043021625296478,0.7668810810601805,0.5837874699775996,0.6215461287107638,0.8571776776106979,0.8265335194787444,0.5171010754374965,0.8152216094625606,0.8227414445557772,0.8616647255892746,0.8882205353929713,0.8366998914741757,0.6989647926829465,0.7900163122134916,0.883869269915639,0.6441286482544246,0.6011381774743487,0.8339769520015454,0.6510942844485417,0.6966853304547378,0.7059598570085237,0.5613044506417952,0.5617439554237742,0.7808089335698853,0.7785554019964769,0.3626190345556215,0.6392117197297829,0.8767315946286951,0.7248570822122127,0.807873832781945,0.797335753792435,0.6668212577198225,0.7317395794583264,0.9438584121795506,MI
0.9999999999999998,0.9632676809566887,0.9599949647070452,0.9435408491574975,0.9372424533927408,0.9247982819504041,0.7209567066245492,0.6473317223834743,0.8391999485911394,0.8994776500309498,0.6166387961031472,0.5534399786442672,0.886263880287818,0.9832928060569419,0.9756656891752022,0.9695014946040985,0.9540971930011539,0.9449298564680075,0.9070775001432845,0.6832544742134363,0.642080428747295,0.830500064403936,0.872146068894833,0.6411548813566155,0.75646482302165,0.9671673493501445,0.9498979147776747,0.9512313070956651,0.9579046569957421,0.9656794014299621,0.9324358704744264,0.7148242947837773,0.5766105467549882,0.7413375613077768,0.8183017228458656,0.5792868993640048,0.4963335756188103,0.7996601584054368,0.8027029296580286,0.6362506978165434,0.48277238225172403,0.5721810432825212,0.4901196786332176,0.7184120088459118,0.5862724621382336,0.15019060782484916,0.0,0.38161626166272744,0.7247302504037256,0.683080766026221,0.5113446159928281,0.6285548802033993,0.8693762718587064,0.9175304487835108,0.9048879153220974,0.9006868601068281,0.8881643972140332,0.8729551390058037,0.5572887421582164,0.12665360487350363,0.14352312545431345,0.5701550221013425,0.8107914578069317,0.6838442684040322,0.5276422910887375,0.706548392337542,0.8857819861860008,0.8965065440933786,0.909191928428353,0.9248894026408034,0.9141354158642196,0.9096287135913752,0.7248768333186508,0.2817655219357411,0.07854768621488861,0.4325558633779061,0.8041289860850964,0.7975847827011575,0.5978014123797506,0.6181516695124489,0.8480233972541289,0.8863587705978915,0.8861442075064441,0.9040629806542524,0.9117789565770871,0.9061827681458421,0.8205352955501606,0.4037311848409264,0.08622142088097107,0.3465778336534895,0.7649170934234382,0.8528653081772808,0.673918271994643,0.6148534840578344,0.8406619780023676,0.9192171047741622,0.912327649301991,0.9150203712368914,0.9247833292406094,0.9051749330023215,0.8851218625987551,0.5380605992170973,0.13810083187452316,0.2534351251453746,0.6767204151395905,0.8273803431540718,0.6649940721284457,0.5657698353672693,0.7819917621004582,0.8997932423897537,0.8809935829856268,0.8876974730022036,0.9028197566853924,0.8974469055660441,0.8698081330083534,0.5273293724478343,0.11577389555804607,0.19725374003816443,0.627765391607976,0.8353706849913112,0.6872619071799302,0.5110103350956312,0.6719206928377461,0.8752321103418514,0.9052339957443418,0.9125271433485092,0.923458475384076,0.9168487665406906,0.9124703318871477,0.7794350958300471,0.36417378291266234,0.06674766698643397,0.33285924895546515,0.7420873269450141,0.803487209708927,0.6138655879166692,0.5480893695637568,0.786190991008975,0.9001854428263238,0.895867657332275,0.9021474242916818,0.9150474714875283,0.9173659386853894,0.9043022200118231,0.586775424947749,0.15944656487415143,0.18488648633051552,0.611945625760965,0.8547408536699888,0.7309256280235024,0.5733670283061314,0.7310975424404804,0.8951184616333647,0.8975834339212574,0.9032947669730482,0.9185961575608841,0.8975656932951466,0.8652348308163418,0.5336586710294828,0.11314408008899957,0.16200466993126184,0.592004428966691,0.828255959737435,0.7035607258797727,0.5394118368032164,0.698752567438859,0.8795930345198364,0.8938307419735334,0.9160222559851465,0.9253430726662015,0.9027835116070471,0.8557493180465487,0.47942799175060724,0.09294887494670823,0.2404474571597346,0.679048045836562,0.9072962378991727,0.6571246950028877,0.5418664125992643,0.8845899115209714,0.9758886791041832,0.973186201036899,0.9659623581633812,0.9470291705693195,0.943656199137471,0.8604650875570556,0.6388411742298625,0.7065064462409294,0.8771766727027039,0.8004241855823386,0.5281737237761985,0.7584852052671984,0.9648413500163604,0.964422704698997,0.9694961855707576,0.955948219941132,0.9527473542307467,0.9372921814150288,0.7553305142954023,0.6535097910352656,0.8344804755028583,0.9224856541550424,0.7038478425448387,0.7486249361653281,0.9889374150516652,0.9822606922760178,0.9623584636756435,0.952718971637011,0.9525118101300694,0.9549397135651005,0.8261057756867907,0.6117502599061355,0.7276990994082697,0.8859232669975825,0.7666959851825548,0.5241324139910053,0.8051028937555309,0.9927013729361487,0.9754012395602409,0.9730303805040366,0.9709104653868084,0.9579407663439417,0.9446066924193655,0.8166115357974031,0.5994606491716723,0.7090096959755896,0.8841378145433556,0.7960782248031999,0.579618298920356,0.8434427356329726,0.9694164379639798,0.9589400376921777,0.9423454753975748,0.9289172774002796,0.9455956269765082,0.9402668133776142,0.7400533096761968,0.638281341722285,0.818395109431808,0.8977543771322465,0.657482469410591,0.6642855557445124,0.9651216668428286,0.9776710954753678,0.9802011321282766,0.9701955529405668,0.9669500806292002,0.972317082970575,0.926683108748428,0.7055989726096634,0.7191330252058623,0.9012322455594857,0.8781869422112754,0.6480301348400181,0.8627591005518587,MI
0.8994303026416488,0.5808318251061992,0.9032143998221049,0.9112298199354165,0.7753531746160345,0.7695147288942188,0.6999863030904097,0.5940677440969058,0.7513508382741367,0.8811978385772679,0.547054783590645,0.63528025966728,1.0,0.9349939594313996,0.9918473608139271,0.9329480534628094,0.6188643949356911,0.38998942501996137,0.584597129707328,0.8166531173001408,0.5719638222602219,0.5494373263173435,0.7664398798439942,0.6769134558436645,0.7573699347997445,0.7575682825467771,0.6559165911471605,0.5509375953137177,0.7200069408210648,0.8178467464873194,0.4336685218463332,0.6036572666354769,0.949083067171439,0.7863258872404844,0.7848016084823102,0.7972323988218672,0.6108554580013967,0.60223850815429,0.7916148266919047,0.7818587189038553,0.4191682625436881,0.6130906540028689,0.8899998100990976,0.80082288062055,0.8255785296424958,0.742324232771165,0.6041494159095913,0.513592883048501,0.5095259724212577,0.12658891583210874,0.0931500032302015,0.046239202353837605,0.13466498748613054,0.4194348497542828,0.577128191411902,0.6605415286814513,0.6012900143496074,0.7046329316720881,0.372165977455611,0.09842152534017723,0.5252073864176601,0.5975516533081389,0.40211975718160176,0.4425261107144016,0.6287821061470473,0.6042915819485133,0.5873787051326276,0.7125962141037228,0.27879698897559635,0.16305849729042565,0.6043082650417229,0.5120547944805338,0.3720393993950952,0.516963168274049,0.5866530125236209,0.5595738651326725,0.47833970835426065,0.5183664449179322,0.16405925936979804,0.1462887018563932,0.580204049893017,0.43836353298281017,0.20513882318690957,0.37035513551253096,0.7257763942195439,0.8250359915724208,0.7606731578105448,0.7982458830074464,0.41992424063537115,0.09745271556166912,0.5559625326602871,0.6294866951939291,0.4548562435624497,0.4558515072223339,0.5832140584443533,0.6097584895139021,0.6592261135944337,0.7241979623520609,0.2804314118581335,0.4104564290189119,0.7489497397849876,0.6245738634925324,0.47947079865815656,0.5845428287208669,0.6636943772997528,0.5832747813586208,0.5601918804385217,0.5050045138800447,0.0202658160558582,0.24331256651576316,0.57494973791737,0.43039874786899324,0.29820227595509685,0.4651608902055986,0.5215275569028037,0.44790669654942494,0.592360528859118,0.45070675837391105,0.02847758196932748,0.41438244449580086,0.645126954969558,0.5400591276216224,0.5080528170379677,0.6466637532895607,0.6789012703746407,0.6238081101756445,0.662617807787488,0.5444642811802045,0.03735753979384526,0.277939416785689,0.6627417327578793,0.4969609902458445,0.3346136970288933,0.5052402143921904,0.6045121402557876,0.5719886018692941,0.6545671178777721,0.44469843945585197,0.07852245381368128,0.4827787646676458,0.5600644492844156,0.3939894496528673,0.4384945496494086,0.620823868660465,0.6430837509894927,0.5911579261470146,0.6837345146096916,0.36207836277901206,0.12662744115572222,0.5881520461487169,0.5864888159506032,0.39820528756535856,0.4386780248605926,0.5864561826945001,0.6260455434839445,0.5919980540426937,0.6622668766374642,0.2290333129251234,0.18751191444693127,0.5982326303002372,0.5367616056188367,0.4260034828069892,0.5885012019162494,0.6552843796224392,0.5804594359380544,0.6184712930988283,0.44539289793492154,0.027233931370735043,0.4150708078609111,0.6328424147097076,0.4661773184738909,0.37992175658328664,0.5458599052360431,0.6359023849653038,0.5890652006426884,0.6378778017398541,0.3685018393151882,0.0,0.41218192101962536,0.3868185505513484,0.6224107397870129,0.8650418189374074,0.7809959977347178,0.8276081228531043,0.768282593007561,0.6242194710332298,0.6849445841093633,0.8505221094689652,0.7303058147573585,0.4649055654719687,0.8010438278611054,0.7845190192442302,0.8151465747714148,0.834045983764867,0.7105350672598458,0.6410843642169284,0.7966859592540678,0.8159782602359891,0.4670968738810686,0.7484329560007166,0.8905760520315997,0.7957875130961822,0.7992213372986114,0.6919884902218052,0.5727754034093429,0.7306927472857656,0.913637748478358,0.6482605265979622,0.7175058625514898,0.9306009680775169,0.7797227435907099,0.8363922040255845,0.813633755106177,0.6697880174187385,0.6178307549449951,0.7855549176769347,0.7667299310162714,0.3616157195204308,0.6617359368172147,0.9004722094789788,0.766838710885771,0.8043021625296478,0.7668810810601805,0.5837874699775996,0.6215461287107638,0.8571776776106979,0.8265335194787444,0.5171010754374965,0.8152216094625606,0.8227414445557772,0.8616647255892746,0.8882205353929713,0.8366998914741757,0.6989647926829465,0.7900163122134916,0.883869269915639,0.6441286482544246,0.6011381774743487,0.8339769520015454,0.6510942844485417,0.6966853304547378,0.7059598570085237,0.5613044506417952,0.5617439554237742,0.7808089335698853,0.7785554019964769,0.3626190345556215,0.6392117197297829,0.8767315946286951,0.7248570822122127,0.807873832781945,0.797335753792435,0.6668212577198225,0.7317395794583264,0.9438584121795506,MI
1.0,0.7654769869012044,0.650593716875306,0.540581123418427,0.36478369347027195,0.3343705813021387,0.40392058288199983,0.7392680479240399,0.8389026312358068,0.615863132532346,0.5218980108963533,0.4276837677395715,0.2885999625703479,0.29081609369300754,0.3836965934255283,0.7432081010719371,0.9122345205867917,0.6985265171356252,0.5485651987179967,0.4793381037250777,0.3331188203697053,0.3538942749598766,0.4789444688892046,0.8367079515227616,0.929211814837839,0.6715446255499957,0.5338839965568689,0.4919454093650577,0.3799143209015563,0.37324400176897665,0.44416717054387833,0.7662811352696046,0.9286917941934449,0.7195355467423514,0.5827973794906995,0.4043190222352582,0.19142539837809114,0.1305397272202482,0.3354833476136556,0.610218425089017,0.9315303016357959,0.8506791892851817,0.6450389524107845,0.5529239726990829,0.42346251716542227,0.29597762877655676,0.335657615685073,0.5378651749292969,0.8913977328328033,0.864543972241163,0.6303508362302135,0.5173847859343308,0.42585795541049487,0.5638210706632902,0.8233229660751635,0.7045372293253664,0.3453752700160315,0.22823729352951805,0.2122879806332585,0.3723172412225768,0.4269270212865788,0.618088245241371,0.8479556187302988,0.6879703682982141,0.357697515893479,0.13535520373712195,0.0,0.19180210687167198,0.337920764416042,0.5163661680383798,0.7763548501883433,0.7747708295798268,0.427348860926406,0.3150056079776782,0.24291130033900288,0.3476561772522522,0.3291302990538676,0.4133324643261953,0.6696040877403737,0.8586052360658729,0.5928748383263103,0.3217325288623032,0.25702165744004013,0.25157406366021995,0.38089938921168676,0.40778070150154244,0.6497948139122798,0.8365053307202461,0.5758681477995866,0.26622069326905295,0.20247509173610956,0.21423894089155304,0.33286879095284627,0.3897099886948041,0.599838239748955,0.765899524104332,0.4996737025581166,0.275449599145257,0.22076171965628344,0.32852797846752946,0.4402465623460321,0.5110415870661962,0.7500483755716303,0.925965024832526,0.6615845132903639,0.3701802705724795,0.30830866692888836,0.33599352352730394,0.4152324901003279,0.3996047464100059,0.5242624240970524,0.716165527928847,0.5086658632891359,0.20304188395493838,0.1552540724204805,0.17030143479185833,0.2863240634664801,0.31654307129004344,0.5076956187011445,0.8147639957917283,0.8042917622717578,0.4836060043997401,0.4626979150265962,0.43227286031827505,0.385411673535784,0.2798894861171006,0.36580060178771046,0.6272831326406059,0.5675376457313122,0.2813160229277982,0.2389245891430436,0.22201660148099478,0.3184569713507628,0.3723071993715741,0.570935305614785,0.7522160084848153,0.5032149483421806,0.2688791064624154,0.2552080100555729,0.2983773473758311,0.3984124336110897,0.4482580260774687,0.6576245045286222,0.8550858115280491,0.6253160505115161,0.3346808174969649,0.25202289665396727,0.25684774660696563,0.3641025759438197,0.4191366602041855,0.6173612372426569,0.8094648299184866,0.5773712843752286,0.30091298164786595,0.21524625347242665,0.2570932596651896,0.3505398430506297,0.45569525726551463,0.6969589100424223,0.8454140495183853,0.5454353385186148,0.2874849825557062,0.2508543728172725,0.28213820434073433,0.2727807232148751,0.4034120376034176,0.7060709833022636,0.7751211738073325,0.4486921380306854,0.34150197673067506,0.3923400890510891,0.3532813513357307,0.3284917304670376,0.47583315948484683,0.6824826762941725,0.49029906283483493,0.1783528757850834,0.11732887326859309,0.2850051573836496,0.443319638910844,0.246337008404113,0.2179999580994303,0.47704444911382504,0.7733750903508656,0.6568532862199334,0.5051802458153283,0.46022833986424105,0.4731148075342908,0.44959238938908097,0.45106781193110423,0.7501586252887096,0.8969446283906071,0.6579084736250373,0.4596708079718699,0.4053482741657142,0.3407319071781014,0.3404597714115001,0.46692507750202195,0.8327779772582451,0.9179579078363762,0.6816976789671627,0.5924247765243043,0.4520243534226922,0.30582776865084194,0.316444060266579,0.4313574650426517,0.7767865980695237,0.8685761129187037,0.6542897659949971,0.5718175192807817,0.4611513617518317,0.32956214732244726,0.3563740050062969,0.4883569114681099,0.8507850713402267,0.9182002436485286,0.6910470713830477,0.5812672735569655,0.4817000108035687,0.3433197383174025,0.3394419290925921,0.4084039805223396,0.7526055044246793,0.8114811102449098,0.5881095203584255,0.4876138187798351,0.3980698705961392,0.2946813850175931,0.32218555173262686,0.4455347713123139,0.7451629309116776,0.6523157682042497,0.42667956544608954,0.44383600003861456,0.49952050643629553,0.5453695609671598,0.5361191132561594,0.703621862406246,0.9775431004024413,0.8153296894350581,0.5350422232172005,0.4449912343144593,0.35688947220515344,0.22650033127886715,0.25158437637463926,0.4155262251342262,0.7704774039019098,0.7452407602839046,0.5609338015605241,0.5679571165208439,0.5090709488452547,0.38624603098474486,0.412517839042815,0.5492717047727895,0.9115739295867726,MI
0.9962499824607365,0.8956308935236228,0.9387957722290059,0.9363561784906573,0.8073056936501293,0.5054219677468286,0.6087378656960558,0.9019130037678442,0.9981024193452264,0.7481482512777409,0.5588966622193032,0.8951417049966408,0.9091851945976703,0.8530293525815424,0.9223679739424875,0.9070569382147591,0.8379259259128684,0.5457075868945473,0.4893770968811366,0.7941758321140271,0.9557477392905911,0.8007663033088122,0.6049646823290225,0.9006016743339886,0.897884408647784,0.8893763341443104,0.9287522024775718,0.921441251199381,0.8821129218612711,0.6652687038384624,0.4896777370597527,0.7467685811644738,0.9389462930599528,0.8468247149484207,0.5847564117324575,0.8670461513838257,1.0,0.914985737988173,0.9467352981711445,0.9319125621895337,0.9007474799142461,0.8651790859798476,0.6814222798370877,0.45857658415963076,0.6930588904120469,0.9473905007266068,0.929241753498403,0.576079435132073,0.5412579248721348,0.9108458583601031,0.9203870079451266,0.8898213719408017,0.9376159175663732,0.9344981662803513,0.9052206917014809,0.8032536202222675,0.503121357749738,0.5268171210434907,0.8360692100820994,0.9575710947059566,0.7457502735839481,0.5425604601903045,0.869550630152538,0.9166200334014922,0.8902672532625804,0.9407571172142033,0.9276212514433726,0.9083564227681844,0.8384615919402152,0.5508734000370374,0.48648173312895837,0.7917656129351065,0.9623822457451565,0.8936641789444018,0.8390601945892158,0.6441357551327669,0.32945217785625047,0.39537027054052665,0.7049401278906542,0.7862292723069393,0.8061609418454214,0.8212015726076274,0.7796437140546155,0.7855729845031005,0.6925870132549585,0.2025614805477418,0.16358956684874437,0.6326212454743132,0.8199994898566754,0.6632774606707121,0.34237514672305513,0.34646696044798064,0.667949058380064,0.7856110251668396,0.8124766654793785,0.813482314158668,0.7675888315736477,0.7746598677953243,0.7362059098564546,0.25080177647489643,0.09422248447388126,0.5579036769166503,0.8397190502872554,0.7401394797949457,0.4281506173676024,0.3355151330808317,0.6366073953604867,0.7612167004030015,0.7891052010035997,0.8196596454266394,0.8012055485449161,0.8086864397035733,0.8240067567522451,0.37598214915999106,0.08471063109818688,0.5037553143110349,0.8066774108061314,0.7288623946840951,0.43882164567892046,0.34556289287628417,0.6486587375913593,0.7907571920371086,0.8046773742168223,0.8077753968780086,0.7510904008131094,0.776732400691134,0.6872296840679786,0.18706848369163032,0.1441340706862424,0.6220867602306095,0.8174598857525841,0.650678840397739,0.34025993713583613,0.38677801817230817,0.6986586587050803,0.7891050067269902,0.7996036903056738,0.742818903750599,0.7674907379270817,0.6994490359541929,0.22907960119759707,0.2943963579286626,0.7479929589971701,0.8587849855254586,0.6564188653574905,0.3556071485658654,0.4773424331154348,0.7621100571901609,0.8194520214036998,0.7871366962223432,0.7821493360381035,0.7532614387058332,0.27717771765105015,0.15922120964107078,0.6243529359821522,0.8481909848190288,0.7007429055648706,0.37375981582052287,0.3497986505139963,0.6767369767365903,0.7863882029661409,0.7920075590645177,0.8101688379472338,0.8132432037305457,0.7939818743969331,0.7578062482941079,0.7644781500590461,0.3463028304701936,0.0,0.38596378766132533,0.7775283226846197,0.7951966198995644,0.5473424837207621,0.31220971336628,0.5238706298149736,0.7428891233342401,0.7787767177284906,0.8004107110493992,0.8044141942357177,0.7796002720258834,0.7700224265014084,0.7279950470375662,0.2562243221718927,0.16428052557651984,0.6255205064338796,0.833002401178125,0.7152711790666317,0.3969587134042758,0.3261096838420072,0.6475104818065298,0.7904968504366372,0.8055611286097291,0.8099580380723737,0.7837369647029471,0.7363731787603305,0.7931378556795501,0.4948541736234029,0.07348620006852169,0.3691076245723486,0.7751488364455517,0.7878062141829427,0.514606752537738,0.2716376182100446,0.510083236543116,0.7575619320522566,0.8563872926705631,0.7939009458769628,0.47587768315954637,0.4766009528758306,0.8004091249085903,0.966332070925219,0.7923069472843576,0.5072816624228604,0.8050319676000393,0.9186621599022087,0.8786288743824318,0.9089686781431863,0.9278595324667167,0.9255362489649537,0.902999136396295,0.7006798693753145,0.43112654068799383,0.6302598605700025,0.9066536275688919,0.9291681458144327,0.6435665976412204,0.6936142949196635,0.9373483547628192,0.8731400615604907,0.9168996251049077,0.9266335867850382,0.9150910107404302,0.8849656189031765,0.7656930821611363,0.48409725604652243,0.5945656461342441,0.869741211159694,0.9630213274528678,0.7325115616551257,0.5458877250391367,0.8736011053723334,0.9112129572562417,0.905122354988591,0.9408304920532191,0.9297527915894888,0.916646296244545,0.9073431080569976,0.8968161974503297,0.7211969191394405,0.44244626617648164,0.6450742681260895,0.9206831339990282,0.9658465510177097,0.706012351855009,0.7906166676691,MI
0.8958349043763314,0.4165737731853132,0.06569618510035058,0.20468299991545358,0.40207282488969387,0.49317493419243386,0.595280111614874,0.603374088177032,0.6074356255436566,0.6729448065161816,0.5956118009958558,0.33945601897254285,0.2894807505910162,0.5567866927275849,0.7938174234807911,0.8652969567750608,0.9372964109448976,0.8922543818694741,0.8293495469868901,0.8322835051783875,0.71947566523176,0.4768105324443863,0.26892030236985365,0.44528713232389006,0.6110653263585548,0.6772655216311056,0.816274814960289,0.7468722426530743,0.7110564324239874,0.6868940320183983,0.6151635485201248,0.7077968472421556,0.5575679764740307,0.4689399105853336,0.4753457080404919,0.2950891910954927,0.15678282429406254,0.40673855379198365,0.6349932935941731,0.7399290691734053,0.710261030778292,0.7911900369617015,0.7966670109765128,0.6768432599904828,0.6966051755731137,0.4790759580272379,0.19995627297280638,0.18109838243202914,0.4516650683830927,0.560936767264141,0.5214134884838391,0.48163874287791897,0.5107543881335563,0.31456550007729067,0.3512894724269766,0.2200973394347132,0.0,0.005792273037140472,0.45798204592328773,0.8546038414746051,0.8234540779082753,0.7270605912162922,0.6922368655948441,0.7914454982190726,0.5945235723264721,0.5777935798825182,0.5199471001366178,0.3086259063662635,0.18742635269547403,0.4502688889586559,0.6359764422077845,0.6233079609923351,0.5491540678297238,0.6376305580763559,0.5576923701777932,0.4992809527236015,0.5200613125121794,0.3377295896751784,0.1925872207516246,0.42699842128025356,0.6304768600233448,0.6091169271619914,0.5404776839588727,0.635116352419653,0.5708479245341742,0.41399065928831513,0.48559403314918814,0.32620714368177683,0.15218982117670254,0.3401202900710967,0.5966364630430863,0.6448959387337356,0.5820784331935447,0.619456578933955,0.6117262836496935,0.4421596164631385,0.4914916474638904,0.35959710759696284,0.20006778372689782,0.3732370544435737,0.6337259240355624,0.6883036149098296,0.6280396337230543,0.6672927889130578,0.6251983247109161,0.476995264871074,0.5724894182137343,0.44457679242640324,0.2437907182407253,0.3329648727710439,0.5970593767999319,0.6284688531901135,0.5715832216675114,0.6161689942339468,0.5606808318485457,0.4119304317881567,0.4835511600235547,0.3319369844993618,0.1361880425771136,0.30378621380223336,0.5945116639691364,0.6731822774031997,0.6515510151436077,0.6727234779776214,0.72823292065504,0.49901376252132046,0.5578256662507104,0.49697385663561233,0.2860023733135346,0.20407379499469913,0.47826118138380025,0.6321621260207935,0.6136112558417115,0.5779819224034988,0.6622351772199999,0.5214390989348279,0.5126568706310195,0.491980813363071,0.2882082197060196,0.1493904832656039,0.3860553213614111,0.5897842359309897,0.598022874659446,0.5519140351967695,0.6480251518131053,0.5176292358482657,0.45368919830343746,0.47168691859163037,0.30387096193935736,0.20296361979669264,0.4689477987643871,0.6628330697736162,0.6728146552905376,0.6057236143043099,0.680580790843063,0.5676239417762785,0.48612795286114086,0.4874307460008023,0.40145425974430626,0.5414145029652375,0.6520829970399888,0.708472911403224,0.7983880302302606,0.7153512247079976,0.7644724270702854,0.7684566275356666,0.598632486800156,0.3261431292416792,0.41039918300283507,0.5818545335281202,0.6373098882390069,0.747711157907132,0.7208689797539551,0.6667918286536576,0.7211593547495911,0.6676037862080806,0.40076934895287497,0.30766635807456577,0.5154485503137392,0.667901458141603,0.6717231439283688,0.7702977564572149,0.7129328806554223,0.7101229317815774,0.7495853341637533,0.6452218183018008,0.36749873198102945,0.3813524351371922,0.5920759121636059,0.7218678340271278,0.72743503375944,0.8653817971557358,0.7953552787772371,0.7551834987614243,0.7877588831585935,0.6940959044879831,0.39378101654971864,0.28332866186328154,0.49340312597857094,0.6353991610794165,0.6740040923506014,0.7518873841314768,0.6951969505123015,0.7101311434984958,0.7494182766992354,0.6049686094258422,0.3504403078085896,0.45914198867593337,0.641371819528934,0.6860747340441833,0.7503088266612692,0.7859064429353526,0.7291003054775436,0.7964494499628527,0.7712994589794695,0.6045357090246637,0.3426578828800042,0.4297921915748426,0.5844612951334951,0.6429812886399988,0.7398597461454646,0.7173115256259552,0.7049878219952661,0.7536543458099056,0.7158715442651951,0.47517232074671467,0.28221355422443883,0.45193533521497997,0.6173795457385363,0.6502519041042936,0.7680650571408711,0.7005407760897344,0.6596576944259369,0.7313620397651608,0.7144420670587004,0.4622745530090153,0.3183510731666259,0.5104243427733435,0.6684400097017762,0.6763736391910782,0.7548003920370161,0.6717644155530804,0.6888333214391897,0.747125806315867,0.677004000451567,0.3933686902693374,0.3547336896375479,0.5693967819122978,0.7383722093854943,0.7792459993120175,0.9107819481334918,0.8407052557587971,0.7934231749967453,0.892309375529321,1.0,MI
1.0000000000000002,0.7616454287961683,0.6996288398312684,0.7280725947282554,0.590858910549884,0.29912402662516624,0.15870215031530788,0.3894487202755028,0.71350066431828,0.8700106902146352,0.7316376397317057,0.6707542681379828,0.6948212100571347,0.6288362244862469,0.3891426710197117,0.10480436566188445,0.17069698315221027,0.4613396122615092,0.7833352956965742,0.7852765229651884,0.6660153274904375,0.5886662487161256,0.6199865736143526,0.6155584821143256,0.43647250852902886,0.14639741603559764,0.0,0.23747211244577726,0.5247279131886209,0.6298461159186546,0.589815619723576,0.6245909977587851,0.6003098845953645,0.6423767659507666,0.390028618768268,0.11900976858009193,0.14151015189463534,0.4379161177370725,0.6432253438950328,0.639290224672646,0.6617137289168709,0.7312464941055385,0.713703941431983,0.39931091256104323,0.11629917595803096,0.09800290314416871,0.3906857146714735,0.6207988245604164,0.6575371322145391,0.6289433215538327,0.6848830924302789,0.6387518986688485,0.35911261581271603,0.09737969015431092,0.13972600630515886,0.440561531205961,0.6342071601131043,0.6433414234785555,0.6257282570742604,0.6556795760770358,0.5681259283367559,0.31304530114408813,0.07902977115068777,0.20047814181370516,0.5029056557518095,0.6416515226526462,0.6266870204701982,0.6610919230250001,0.649943798364016,0.6145512276044649,0.3277722361616935,0.10584814660854258,0.24677384042304817,0.5472599497138031,0.6906210774995134,0.6715521286323278,0.6760023606206207,0.7157704842986818,0.5700887580591376,0.25816231425617087,0.03617582116101259,0.18166128393939007,0.47900561223579063,0.617448500052937,0.6300337900956643,0.6065694543799094,0.6671928696778735,0.6188487920468109,0.33853771185661796,0.08510475345397084,0.1489411676485457,0.4514831582891565,0.6386479878968452,0.6409915210887183,0.6145359071852436,0.6544502833476245,0.5962427857063577,0.33717290661461585,0.07865483701142462,0.14106693182998264,0.449265478363581,0.6309157241902688,0.6132212481045245,0.6252585683117158,0.6071475418619239,0.6776856759440262,0.516295760652818,0.22249007933067833,0.09704333684941324,0.33769461755806995,0.6007326631868335,0.6459242384197237,0.6259569371671481,0.6594942376611506,0.6657514836437748,0.3705996208771545,0.07977819509840178,0.03288572726447958,0.31851337620910414,0.5722656301544016,0.6425850394165107,0.6083680008320058,0.6265445280918442,0.6907010227268156,0.5424873673034092,0.25209078142053554,0.05809949362223121,0.23934604850831498,0.5398282811277539,0.6756373479850641,0.6472704520359704,0.6600150363930812,0.6504308570003323,0.4932382282633829,0.2151934062813865,0.08840052931427222,0.32674267515445177,0.5854982700484956,0.6579941147038244,0.6391728252555129,0.6475551810726585,0.6743941656841994,0.5296873795126202,0.2284967592898881,0.023840134776139,0.14238508509366854,0.12033507222423356,0.27813649659071227,0.5871906857197724,0.8965718261864988,0.8187115492486432,0.719147274352703,0.7145640707742495,0.6887699628021033,0.466975457943964,0.19615741164234657,0.2654973427760883,0.5524470438076303,0.8602119085583599,0.83783691248054,0.7176928604642383,0.7264305214463904,0.7288299725814495,0.5635983904809092,0.25694351695234374,0.1528407198670947,0.39728213879153373,0.7277532791176269,0.9491658568320063,0.7647105812962136,0.6775205787286398,0.7083072211538564,0.681015008389595,0.49467530167246854,0.18554280383441246,0.11356829616587483,0.3808327163921157,0.7379200440235196,0.998973561160519,0.7959222013841096,0.6916516658311298,0.7107379831308622,0.6666616863143944,0.4119410314880718,0.1743270294571384,0.3148542739018294,0.6246780252932662,0.8841978092979439,0.7622715285168582,0.6842304931388827,0.7044135339998732,0.676851388569671,0.4615543030361604,0.1722498255414031,0.22307372345052556,0.5083824988553316,0.8243023462056158,0.81917810458525,0.6953077652311535,0.6923605235812655,0.7269504429150302,0.6080960638725605,0.3165986560733427,0.12379166514279305,0.3165203175434703,0.6351034883234281,0.9524469886574003,0.8259782726776861,0.6930474007453913,0.6828409198273191,0.6947808130684783,0.5766453089235146,0.29189173966445026,0.11048384680520096,0.31628949384559646,0.6445226112121671,0.9778937020776757,0.8654943904198185,0.7467313287232045,0.7399261963504278,0.7466593449173307,0.5753412521655641,0.2759904764775529,0.20673224596541462,0.4669597432447026,0.8041395401796565,0.9088572828855457,0.7560157896717403,0.6919705300316668,0.7064390496486241,0.5822577177152859,0.28571085976535393,0.1578180871031427,0.3919193469920017,0.7059037544613067,0.8707082250946268,0.7425092507466531,0.6871395506523481,0.7308338529052143,0.6666804098262922,0.4214824109442692,0.15517410982839563,0.2541148650573468,0.5531465009036163,0.9031220294181479,0.8917436266733836,0.7350173405144977,0.7074410824377548,0.7330162620791991,0.6475521596534513,0.38454532651187745,0.1363677141334343,0.2714265291990836,0.5822815767685798,0.9469654912526757,MI
0.9962499824607365,0.8956308935236228,0.9387957722290059,0.9363561784906573,0.8073056936501293,0.5054219677468286,0.6087378656960558,0.9019130037678442,0.9981024193452264,0.7481482512777409,0.5588966622193032,0.8951417049966408,0.9091851945976703,0.8530293525815424,0.9223679739424875,0.9070569382147591,0.8379259259128684,0.5457075868945473,0.4893770968811366,0.7941758321140271,0.9557477392905911,0.8007663033088122,0.6049646823290225,0.9006016743339886,0.897884408647784,0.8893763341443104,0.9287522024775718,0.921441251199381,0.8821129218612711,0.6652687038384624,0.4896777370597527,0.7467685811644738,0.9389462930599528,0.8468247149484207,0.5847564117324575,0.8670461513838257,1.0,0.914985737988173,0.9467352981711445,0.9319125621895337,0.9007474799142461,0.8651790859798476,0.6814222798370877,0.45857658415963076,0.6930588904120469,0.9473905007266068,0.929241753498403,0.576079435132073,0.5412579248721348,0.9108458583601031,0.9203870079451266,0.8898213719408017,0.9376159175663732,0.9344981662803513,0.9052206917014809,0.8032536202222675,0.503121357749738,0.5268171210434907,0.8360692100820994,0.9575710947059566,0.7457502735839481,0.5425604601903045,0.869550630152538,0.9166200334014922,0.8902672532625804,0.9407571172142033,0.9276212514433726,0.9083564227681844,0.8384615919402152,0.5508734000370374,0.48648173312895837,0.7917656129351065,0.9623822457451565,0.8936641789444018,0.8390601945892158,0.6441357551327669,0.32945217785625047,0.39537027054052665,0.7049401278906542,0.7862292723069393,0.8061609418454214,0.8212015726076274,0.7796437140546155,0.7855729845031005,0.6925870132549585,0.2025614805477418,0.16358956684874437,0.6326212454743132,0.8199994898566754,0.6632774606707121,0.34237514672305513,0.34646696044798064,0.667949058380064,0.7856110251668396,0.8124766654793785,0.813482314158668,0.7675888315736477,0.7746598677953243,0.7362059098564546,0.25080177647489643,0.09422248447388126,0.5579036769166503,0.8397190502872554,0.7401394797949457,0.4281506173676024,0.3355151330808317,0.6366073953604867,0.7612167004030015,0.7891052010035997,0.8196596454266394,0.8012055485449161,0.8086864397035733,0.8240067567522451,0.37598214915999106,0.08471063109818688,0.5037553143110349,0.8066774108061314,0.7288623946840951,0.43882164567892046,0.34556289287628417,0.6486587375913593,0.7907571920371086,0.8046773742168223,0.8077753968780086,0.7510904008131094,0.776732400691134,0.6872296840679786,0.18706848369163032,0.1441340706862424,0.6220867602306095,0.8174598857525841,0.650678840397739,0.34025993713583613,0.38677801817230817,0.6986586587050803,0.7891050067269902,0.7996036903056738,0.742818903750599,0.7674907379270817,0.6994490359541929,0.22907960119759707,0.2943963579286626,0.7479929589971701,0.8587849855254586,0.6564188653574905,0.3556071485658654,0.4773424331154348,0.7621100571901609,0.8194520214036998,0.7871366962223432,0.7821493360381035,0.7532614387058332,0.27717771765105015,0.15922120964107078,0.6243529359821522,0.8481909848190288,0.7007429055648706,0.37375981582052287,0.3497986505139963,0.6767369767365903,0.7863882029661409,0.7920075590645177,0.8101688379472338,0.8132432037305457,0.7939818743969331,0.7578062482941079,0.7644781500590461,0.3463028304701936,0.0,0.38596378766132533,0.7775283226846197,0.7951966198995644,0.5473424837207621,0.31220971336628,0.5238706298149736,0.7428891233342401,0.7787767177284906,0.8004107110493992,0.8044141942357177,0.7796002720258834,0.7700224265014084,0.7279950470375662,0.2562243221718927,0.16428052557651984,0.6255205064338796,0.833002401178125,0.7152711790666317,0.3969587134042758,0.3261096838420072,0.6475104818065298,0.7904968504366372,0.8055611286097291,0.8099580380723737,0.7837369647029471,0.7363731787603305,0.7931378556795501,0.4948541736234029,0.07348620006852169,0.3691076245723486,0.7751488364455517,0.7878062141829427,0.514606752537738,0.2716376182100446,0.510083236543116,0.7575619320522566,0.8563872926705631,0.7939009458769628,0.47587768315954637,0.4766009528758306,0.8004091249085903,0.966332070925219,0.7923069472843576,0.5072816624228604,0.8050319676000393,0.9186621599022087,0.8786288743824318,0.9089686781431863,0.9278595324667167,0.9255362489649537,0.902999136396295,0.7006798693753145,0.43112654068799383,0.6302598605700025,0.9066536275688919,0.9291681458144327,0.6435665976412204,0.6936142949196635,0.9373483547628192,0.8731400615604907,0.9168996251049077,0.9266335867850382,0.9150910107404302,0.8849656189031765,0.7656930821611363,0.48409725604652243,0.5945656461342441,0.869741211159694,0.9630213274528678,0.7325115616551257,0.5458877250391367,0.8736011053723334,0.9112129572562417,0.905122354988591,0.9408304920532191,0.9297527915894888,0.916646296244545,0.9073431080569976,0.8968161974503297,0.7211969191394405,0.44244626617648164,0.6450742681260895,0.9206831339990282,0.9658465510177097,0.706012351855009,0.7906166676691,MI
1.0,0.6808574328642778,0.4976320011592974,0.17463549927118427,0.36699161656378454,0.41519114652653233,0.3236931576434916,0.8026178494547369,0.7944097573492535,0.7773069320095329,0.7028616557439173,0.5022622894545097,0.7194869287671688,0.5054134640662404,0.6110448020859085,0.9733367854791637,0.777655414363593,0.7366774352382417,0.40971588067683395,0.24032763294351556,0.45513371236321687,0.24620496472136022,0.5424932715328263,0.7831146105915758,0.6519419365260366,0.6668869522646408,0.5920314767344101,0.5735655993900299,0.5112252059290006,0.05365738445561408,0.26488178067877577,0.24058819311213275,0.17102409702835963,0.5580541910420971,0.6568275045644172,0.7611992540999162,0.5569544535614148,0.21985262834783192,0.5667690578964573,0.4814543072594848,0.48223283877503187,0.7263137939411273,0.6236340397640237,0.6835478851448995,0.2413608281112345,0.13111157981080046,0.3694906846726642,0.1098095689301819,0.2540037202083911,0.534152972220876,0.7084248518323037,0.7674397820692276,0.3181360988035671,0.5467615047505734,0.7186883213119932,0.45040790214952064,0.5245669299092337,0.5274514316771319,0.6058638227681747,0.17248078789049082,0.128605953128472,0.44390580108500677,0.25026707096182577,0.41430791218802376,0.5659509344523461,0.6636804094346118,0.48391969025157566,0.1304116816912071,0.4768800975241345,0.42982292828969637,0.45137531297060596,0.7106580844793475,0.752020444068823,0.7627531310974076,0.23194593203793668,0.27615951149740514,0.4624718264439722,0.2324940401710749,0.4582880446005997,0.5314577764431894,0.5230040138140573,0.3815131490206318,0.0,0.3243260753167285,0.36779388132467883,0.46697476996093235,0.6192641567115,0.6576493846999871,0.5789682985327085,0.14294462576027112,0.42006575612438546,0.46712253451642605,0.3781823789228622,0.6507407374004526,0.6196472032916063,0.7053821665425648,0.29290038244925176,0.20613699332525304,0.5035534567908186,0.2962359624616262,0.452600320459025,0.5912895264225515,0.6483363303268423,0.466269673286126,0.08656757230196943,0.3853355838861847,0.2918746144489508,0.30078101107199373,0.5766348046398053,0.6801926450478373,0.6823356293843452,0.208910998379372,0.3742308318193954,0.48286419398237523,0.2956902283881453,0.5616718152699369,0.5774752635317109,0.6853797068526783,0.36818359699726466,0.16670931512049814,0.48537321344257345,0.2990486869074829,0.41373627309328853,0.6412820664549042,0.674666820076983,0.6454297158691031,0.17366430461735582,0.39047050221312496,0.5027118905150965,0.3544389793259448,0.6299303352148637,0.6391131818895905,0.7163125926178178,0.35651409463651706,0.15014473085642743,0.5182672304227705,0.3685671722772055,0.3957097747859182,0.5430578520939373,0.5641851099868744,0.49577170506715795,0.0675331299664923,0.3364642028581133,0.35559312166331525,0.3419338281731199,0.6272500375143975,0.6303560743337959,0.7310752855503835,0.27542932659456065,0.29057980691024987,0.5655680788513968,0.3566851167994085,0.556846796525623,0.7634685500785836,0.506946316176522,0.5405680040680405,0.6549410705590049,0.4294097559008736,0.8276438020030361,0.8704747682742746,0.7361960336232807,0.6132139707926845,0.3675520385346016,0.5246181062435933,0.3033336891661649,0.48524060009298164,0.7895191859908448,0.6199943796561218,0.6038234728213854,0.4086785739501657,0.6192881448023848,0.4852210202010938,0.47029842083990125,0.9032166449949179,0.7780098912763909,0.7557936411578021,0.510377879190826,0.4996996342018232,0.6458808971776544,0.3543178158157234,0.6974137472972428,0.8920910377383504,0.7222752667726926,0.6322109348910119,0.35167667030952376,0.5470239891419721,0.49160242370776475,0.4860357526329202,0.8852248340904678,0.7165066804828162,0.6993310578367766,0.45880350912254597,0.4756948479369836,0.6285615952246086,0.3899680827429166,0.7876450070499286,0.9030233268093348,0.6984778658679436,0.5215251240424315,0.30282979433653345,0.5262843478116079,0.3610396718091753,0.5350296846502736,0.8711593100628785,0.6963194971234112,0.6472870385244076,0.37154632212819827,0.5374308795852345,0.5286233991780356,0.3871821178260011,0.841739236182431,0.7917998379831102,0.7467654723549222,0.555184059050235,0.4694848535611933,0.6628963414185525,0.4022120666250544,0.6542415787627021,0.8826033974200782,0.7009734767893572,0.6750562670610001,0.42899426328919565,0.511763312144871,0.27300587650721697,0.45716375266693055,0.7442638728186535,0.5878256217342548,0.6350471398951121,0.3697980995328791,0.4509087523299282,0.5757116916352474,0.3675585581325378,0.8188669271935423,0.9703644047095712,0.8063609648194343,0.6703590026703976,0.44953550586241064,0.6425990916853688,0.4248644801213839,0.5569135631179103,0.9013546739379752,0.7015901790198891,0.6245548512189081,0.34993986587974746,0.4503260695795053,0.4973979749391062,0.2730763605174502,0.7041962756675004,0.7222010626094013,0.6400884649179299,0.5285206944445084,0.699467000790996,0.8518842467443442,0.5465617270502054,0.8503941261520205,MI
1.0,0.7654769869012044,0.650593716875306,0.540581123418427,0.36478369347027195,0.3343705813021387,0.40392058288199983,0.7392680479240399,0.8389026312358068,0.615863132532346,0.5218980108963533,0.4276837677395715,0.2885999625703479,0.29081609369300754,0.3836965934255283,0.7432081010719371,0.9122345205867917,0.6985265171356252,0.5485651987179967,0.4793381037250777,0.3331188203697053,0.3538942749598766,0.4789444688892046,0.8367079515227616,0.929211814837839,0.6715446255499957,0.5338839965568689,0.4919454093650577,0.3799143209015563,0.37324400176897665,0.44416717054387833,0.7662811352696046,0.9286917941934449,0.7195355467423514,0.5827973794906995,0.4043190222352582,0.19142539837809114,0.1305397272202482,0.3354833476136556,0.610218425089017,0.9315303016357959,0.8506791892851817,0.6450389524107845,0.5529239726990829,0.42346251716542227,0.29597762877655676,0.335657615685073,0.5378651749292969,0.8913977328328033,0.864543972241163,0.6303508362302135,0.5173847859343308,0.42585795541049487,0.5638210706632902,0.8233229660751635,0.7045372293253664,0.3453752700160315,0.22823729352951805,0.2122879806332585,0.3723172412225768,0.4269270212865788,0.618088245241371,0.8479556187302988,0.6879703682982141,0.357697515893479,0.13535520373712195,0.0,0.19180210687167198,0.337920764416042,0.5163661680383798,0.7763548501883433,0.7747708295798268,0.427348860926406,0.3150056079776782,0.24291130033900288,0.3476561772522522,0.3291302990538676,0.4133324643261953,0.6696040877403737,0.8586052360658729,0.5928748383263103,0.3217325288623032,0.25702165744004013,0.25157406366021995,0.38089938921168676,0.40778070150154244,0.6497948139122798,0.8365053307202461,0.5758681477995866,0.26622069326905295,0.20247509173610956,0.21423894089155304,0.33286879095284627,0.3897099886948041,0.599838239748955,0.765899524104332,0.4996737025581166,0.275449599145257,0.22076171965628344,0.32852797846752946,0.4402465623460321,0.5110415870661962,0.7500483755716303,0.925965024832526,0.6615845132903639,0.3701802705724795,0.30830866692888836,0.33599352352730394,0.4152324901003279,0.3996047464100059,0.5242624240970524,0.716165527928847,0.5086658632891359,0.20304188395493838,0.1552540724204805,0.17030143479185833,0.2863240634664801,0.31654307129004344,0.5076956187011445,0.8147639957917283,0.8042917622717578,0.4836060043997401,0.4626979150265962,0.43227286031827505,0.385411673535784,0.2798894861171006,0.36580060178771046,0.6272831326406059,0.5675376457313122,0.2813160229277982,0.2389245891430436,0.22201660148099478,0.3184569713507628,0.3723071993715741,0.570935305614785,0.7522160084848153,0.5032149483421806,0.2688791064624154,0.2552080100555729,0.2983773473758311,0.3984124336110897,0.4482580260774687,0.6576245045286222,0.8550858115280491,0.6253160505115161,0.3346808174969649,0.25202289665396727,0.25684774660696563,0.3641025759438197,0.4191366602041855,0.6173612372426569,0.8094648299184866,0.5773712843752286,0.30091298164786595,0.21524625347242665,0.2570932596651896,0.3505398430506297,0.45569525726551463,0.6969589100424223,0.8454140495183853,0.5454353385186148,0.2874849825557062,0.2508543728172725,0.28213820434073433,0.2727807232148751,0.4034120376034176,0.7060709833022636,0.7751211738073325,0.4486921380306854,0.34150197673067506,0.3923400890510891,0.3532813513357307,0.3284917304670376,0.47583315948484683,0.6824826762941725,0.49029906283483493,0.1783528757850834,0.11732887326859309,0.2850051573836496,0.443319638910844,0.246337008404113,0.2179999580994303,0.47704444911382504,0.7733750903508656,0.6568532862199334,0.5051802458153283,0.46022833986424105,0.4731148075342908,0.44959238938908097,0.45106781193110423,0.7501586252887096,0.8969446283906071,0.6579084736250373,0.4596708079718699,0.4053482741657142,0.3407319071781014,0.3404597714115001,0.46692507750202195,0.8327779772582451,0.9179579078363762,0.6816976789671627,0.5924247765243043,0.4520243534226922,0.30582776865084194,0.316444060266579,0.4313574650426517,0.7767865980695237,0.8685761129187037,0.6542897659949971,0.5718175192807817,0.4611513617518317,0.32956214732244726,0.3563740050062969,0.4883569114681099,0.8507850713402267,0.9182002436485286,0.6910470713830477,0.5812672735569655,0.4817000108035687,0.3433197383174025,0.3394419290925921,0.4084039805223396,0.7526055044246793,0.8114811102449098,0.5881095203584255,0.4876138187798351,0.3980698705961392,0.2946813850175931,0.32218555173262686,0.4455347713123139,0.7451629309116776,0.6523157682042497,0.42667956544608954,0.44383600003861456,0.49952050643629553,0.5453695609671598,0.5361191132561594,0.703621862406246,0.9775431004024413,0.8153296894350581,0.5350422232172005,0.4449912343144593,0.35688947220515344,0.22650033127886715,0.25158437637463926,0.4155262251342262,0.7704774039019098,0.7452407602839046,0.5609338015605241,0.5679571165208439,0.5090709488452547,0.38624603098474486,0.412517839042815,0.5492717047727895,0.9115739295867726,MI
0.8994303026416488,0.5808318251061992,0.9032143998221049,0.9112298199354165,0.7753531746160345,0.7695147288942188,0.6999863030904097,0.5940677440969058,0.7513508382741367,0.8811978385772679,0.547054783590645,0.63528025966728,1.0,0.9349939594313996,0.9918473608139271,0.9329480534628094,0.6188643949356911,0.38998942501996137,0.584597129707328,0.8166531173001408,0.5719638222602219,0.5494373263173435,0.7664398798439942,0.6769134558436645,0.7573699347997445,0.7575682825467771,0.6559165911471605,0.5509375953137177,0.7200069408210648,0.8178467464873194,0.4336685218463332,0.6036572666354769,0.949083067171439,0.7863258872404844,0.7848016084823102,0.7972323988218672,0.6108554580013967,0.60223850815429,0.7916148266919047,0.7818587189038553,0.4191682625436881,0.6130906540028689,0.8899998100990976,0.80082288062055,0.8255785296424958,0.742324232771165,0.6041494159095913,0.513592883048501,0.5095259724212577,0.12658891583210874,0.0931500032302015,0.046239202353837605,0.13466498748613054,0.4194348497542828,0.577128191411902,0.6605415286814513,0.6012900143496074,0.7046329316720881,0.372165977455611,0.09842152534017723,0.5252073864176601,0.5975516533081389,0.40211975718160176,0.4425261107144016,0.6287821061470473,0.6042915819485133,0.5873787051326276,0.7125962141037228,0.27879698897559635,0.16305849729042565,0.6043082650417229,0.5120547944805338,0.3720393993950952,0.516963168274049,0.5866530125236209,0.5595738651326725,0.47833970835426065,0.5183664449179322,0.16405925936979804,0.1462887018563932,0.580204049893017,0.43836353298281017,0.20513882318690957,0.37035513551253096,0.7257763942195439,0.8250359915724208,0.7606731578105448,0.7982458830074464,0.41992424063537115,0.09745271556166912,0.5559625326602871,0.6294866951939291,0.4548562435624497,0.4558515072223339,0.5832140584443533,0.6097584895139021,0.6592261135944337,0.7241979623520609,0.2804314118581335,0.4104564290189119,0.7489497397849876,0.6245738634925324,0.47947079865815656,0.5845428287208669,0.6636943772997528,0.5832747813586208,0.5601918804385217,0.5050045138800447,0.0202658160558582,0.24331256651576316,0.57494973791737,0.43039874786899324,0.29820227595509685,0.4651608902055986,0.5215275569028037,0.44790669654942494,0.592360528859118,0.45070675837391105,0.02847758196932748,0.41438244449580086,0.645126954969558,0.5400591276216224,0.5080528170379677,0.6466637532895607,0.6789012703746407,0.6238081101756445,0.662617807787488,0.5444642811802045,0.03735753979384526,0.277939416785689,0.6627417327578793,0.4969609902458445,0.3346136970288933,0.5052402143921904,0.6045121402557876,0.5719886018692941,0.6545671178777721,0.44469843945585197,0.07852245381368128,0.4827787646676458,0.5600644492844156,0.3939894496528673,0.4384945496494086,0.620823868660465,0.6430837509894927,0.5911579261470146,0.6837345146096916,0.36207836277901206,0.12662744115572222,0.5881520461487169,0.5864888159506032,0.39820528756535856,0.4386780248605926,0.5864561826945001,0.6260455434839445,0.5919980540426937,0.6622668766374642,0.2290333129251234,0.18751191444693127,0.5982326303002372,0.5367616056188367,0.4260034828069892,0.5885012019162494,0.6552843796224392,0.5804594359380544,0.6184712930988283,0.44539289793492154,0.027233931370735043,0.4150708078609111,0.6328424147097076,0.4661773184738909,0.37992175658328664,0.5458599052360431,0.6359023849653038,0.5890652006426884,0.6378778017398541,0.3685018393151882,0.0,0.41218192101962536,0.3868185505513484,0.6224107397870129,0.8650418189374074,0.7809959977347178,0.8276081228531043,0.768282593007561,0.6242194710332298,0.6849445841093633,0.8505221094689652,0.7303058147573585,0.4649055654719687,0.8010438278611054,0.7845190192442302,0.8151465747714148,0.834045983764867,0.7105350672598458,0.6410843642169284,0.7966859592540678,0.8159782602359891,0.4670968738810686,0.7484329560007166,0.8905760520315997,0.7957875130961822,0.7992213372986114,0.6919884902218052,0.5727754034093429,0.7306927472857656,0.913637748478358,0.6482605265979622,0.7175058625514898,0.9306009680775169,0.7797227435907099,0.8363922040255845,0.813633755106177,0.6697880174187385,0.6178307549449951,0.7855549176769347,0.7667299310162714,0.3616157195204308,0.6617359368172147,0.9004722094789788,0.766838710885771,0.8043021625296478,0.7668810810601805,0.5837874699775996,0.6215461287107638,0.8571776776106979,0.8265335194787444,0.5171010754374965,0.8152216094625606,0.8227414445557772,0.8616647255892746,0.8882205353929713,0.8366998914741757,0.6989647926829465,0.7900163122134916,0.883869269915639,0.6441286482544246,0.6011381774743487,0.8339769520015454,0.6510942844485417,0.6966853304547378,0.7059598570085237,0.5613044506417952,0.5617439554237742,0.7808089335698853,0.7785554019964769,0.3626190345556215,0.6392117197297829,0.8767315946286951,0.7248570822122127,0.807873832781945,0.797335753792435,0.6668212577198225,0.7317395794583264,0.9438584121795506,MI
0.9999999999999998,0.9632676809566887,0.9599949647070452,0.9435408491574975,0.9372424533927408,0.9247982819504041,0.7209567066245492,0.6473317223834743,0.8391999485911394,0.8994776500309498,0.6166387961031472,0.5534399786442672,0.886263880287818,0.9832928060569419,0.9756656891752022,0.9695014946040985,0.9540971930011539,0.9449298564680075,0.9070775001432845,0.6832544742134363,0.642080428747295,0.830500064403936,0.872146068894833,0.6411548813566155,0.75646482302165,0.9671673493501445,0.9498979147776747,0.9512313070956651,0.9579046569957421,0.9656794014299621,0.9324358704744264,0.7148242947837773,0.5766105467549882,0.7413375613077768,0.8183017228458656,0.5792868993640048,0.4963335756188103,0.7996601584054368,0.8027029296580286,0.6362506978165434,0.48277238225172403,0.5721810432825212,0.4901196786332176,0.7184120088459118,0.5862724621382336,0.15019060782484916,0.0,0.38161626166272744,0.7247302504037256,0.683080766026221,0.5113446159928281,0.6285548802033993,0.8693762718587064,0.9175304487835108,0.9048879153220974,0.9006868601068281,0.8881643972140332,0.8729551390058037,0.5572887421582164,0.12665360487350363,0.14352312545431345,0.5701550221013425,0.8107914578069317,0.6838442684040322,0.5276422910887375,0.706548392337542,0.8857819861860008,0.8965065440933786,0.909191928428353,0.9248894026408034,0.9141354158642196,0.9096287135913752,0.7248768333186508,0.2817655219357411,0.07854768621488861,0.4325558633779061,0.8041289860850964,0.7975847827011575,0.5978014123797506,0.6181516695124489,0.8480233972541289,0.8863587705978915,0.8861442075064441,0.9040629806542524,0.9117789565770871,0.9061827681458421,0.8205352955501606,0.4037311848409264,0.08622142088097107,0.3465778336534895,0.7649170934234382,0.8528653081772808,0.673918271994643,0.6148534840578344,0.8406619780023676,0.9192171047741622,0.912327649301991,0.9150203712368914,0.9247833292406094,0.9051749330023215,0.8851218625987551,0.5380605992170973,0.13810083187452316,0.2534351251453746,0.6767204151395905,0.8273803431540718,0.6649940721284457,0.5657698353672693,0.7819917621004582,0.8997932423897537,0.8809935829856268,0.8876974730022036,0.9028197566853924,0.8974469055660441,0.8698081330083534,0.5273293724478343,0.11577389555804607,0.19725374003816443,0.627765391607976,0.8353706849913112,0.6872619071799302,0.5110103350956312,0.6719206928377461,0.8752321103418514,0.9052339957443418,0.9125271433485092,0.923458475384076,0.9168487665406906,0.9124703318871477,0.7794350958300471,0.36417378291266234,0.06674766698643397,0.33285924895546515,0.7420873269450141,0.803487209708927,0.6138655879166692,0.5480893695637568,0.786190991008975,0.9001854428263238,0.895867657332275,0.9021474242916818,0.9150474714875283,0.9173659386853894,0.9043022200118231,0.586775424947749,0.15944656487415143,0.18488648633051552,0.611945625760965,0.8547408536699888,0.7309256280235024,0.5733670283061314,0.7310975424404804,0.8951184616333647,0.8975834339212574,0.9032947669730482,0.9185961575608841,0.8975656932951466,0.8652348308163418,0.5336586710294828,0.11314408008899957,0.16200466993126184,0.592004428966691,0.828255959737435,0.7035607258797727,0.5394118368032164,0.698752567438859,0.8795930345198364,0.8938307419735334,0.9160222559851465,0.9253430726662015,0.9027835116070471,0.8557493180465487,0.47942799175060724,0.09294887494670823,0.2404474571597346,0.679048045836562,0.9072962378991727,0.6571246950028877,0.5418664125992643,0.8845899115209714,0.9758886791041832,0.973186201036899,0.9659623581633812,0.9470291705693195,0.943656199137471,0.8604650875570556,0.6388411742298625,0.7065064462409294,0.8771766727027039,0.8004241855823386,0.5281737237761985,0.7584852052671984,0.9648413500163604,0.964422704698997,0.9694961855707576,0.955948219941132,0.9527473542307467,0.9372921814150288,0.7553305142954023,0.6535097910352656,0.8344804755028583,0.9224856541550424,0.7038478425448387,0.7486249361653281,0.9889374150516652,0.9822606922760178,0.9623584636756435,0.952718971637011,0.9525118101300694,0.9549397135651005,0.8261057756867907,0.6117502599061355,0.7276990994082697,0.8859232669975825,0.7666959851825548,0.5241324139910053,0.8051028937555309,0.9927013729361487,0.9754012395602409,0.9730303805040366,0.9709104653868084,0.9579407663439417,0.9446066924193655,0.8166115357974031,0.5994606491716723,0.7090096959755896,0.8841378145433556,0.7960782248031999,0.579618298920356,0.8434427356329726,0.9694164379639798,0.9589400376921777,0.9423454753975748,0.9289172774002796,0.9455956269765082,0.9402668133776142,0.7400533096761968,0.638281341722285,0.818395109431808,0.8977543771322465,0.657482469410591,0.6642855557445124,0.9651216668428286,0.9776710954753678,0.9802011321282766,0.9701955529405668,0.9669500806292002,0.972317082970575,0.926683108748428,0.7055989726096634,0.7191330252058623,0.9012322455594857,0.8781869422112754,0.6480301348400181,0.8627591005518587,MI
0.9178667197260326,0.4880260709957658,0.339020170766684,0.34643544348754185,0.3670655420410198,0.32439985682753103,0.4858851484388298,0.651407243533392,0.9700860871340211,0.8046874285704773,0.4007800351297255,0.3279690866133149,0.34357490210205643,0.36672737890733287,0.3107455073889216,0.4756771524181924,0.6864751530338058,0.9341423808402363,0.6176179725670377,0.328539113355931,0.2750526691982331,0.34293304690209614,0.3814178056781594,0.36867859716680207,0.5343575179375999,0.7326186872627272,1.0,0.692251313943975,0.3606920222336212,0.29797525976697314,0.3591000823868784,0.33960222770777415,0.3736271148301453,0.5609423814446433,0.8209573826637473,0.9516906427009975,0.5421163365316342,0.3632979452860199,0.32177562701641516,0.36787485314592216,0.31020677439240796,0.39869664805759686,0.5865397870178395,0.88556716252327,0.8611123366986537,0.44092501833863906,0.3530110490066116,0.34150248092094615,0.3891111717243927,0.3344293126462652,0.4489309716121279,0.6301070251485044,0.9422478846020557,0.8145022885822271,0.40700740610214514,0.30222915418485274,0.34651049806872436,0.3695564732710164,0.3408819613338041,0.510993115628593,0.6874362146252087,0.9574960420435659,0.6793156077631841,0.3523772274876549,0.28779346882883416,0.365511386510758,0.3626474563737798,0.34182926022100846,0.5179540184174525,0.7353957461779137,0.9463937725991345,0.582102690125383,0.35036033728893856,0.29683366026231894,0.36199059185671856,0.3309075331236515,0.36341094313139144,0.5235615174304029,0.7037331646663363,0.9228857843172853,0.6420099190682742,0.44375667484307835,0.27367861732462617,0.24898881519141258,0.28806750468416853,0.21764781703294567,0.22229877569249412,0.06470269078358792,0.3512992143167766,0.5814063953435431,0.44974062761317724,0.27007509965590115,0.3009299842011901,0.2840842789288296,0.21293189732240525,0.12608525333564247,0.1653348478588077,0.5627913866177998,0.5397531661508408,0.3952465900988118,0.25468202004936336,0.2952942675090253,0.22503327148698604,0.2008754580971539,0.040922578821879885,0.23676546870386583,0.633919081503795,0.5548369985273007,0.40747740133986077,0.24799099484625153,0.30730143866394877,0.2975472849813885,0.24267876749449724,0.15948415783408376,0.19083796226654592,0.578836563639983,0.5698413354253669,0.412996989394514,0.24092003799944517,0.2897405585822188,0.267043345661115,0.24348998756961615,0.14256870075154704,0.1566155878884472,0.5860029829488451,0.5974246601005513,0.42599391392038743,0.24785705037151762,0.2728190345616843,0.2459048272185187,0.21248703936242697,0.11951518176246956,0.3071958094917233,0.6301037740541151,0.521667819500264,0.36884721029064127,0.2915484763838687,0.31040563907566643,0.19913374483120583,0.205150850626159,0.05939444012559636,0.35898283689816557,0.5537943082437522,0.4165491091296516,0.2427765874575465,0.29984347825889435,0.302624749439129,0.22431499124585508,0.16859429773135481,0.165376826288967,0.5558149817320044,0.5392609597841007,0.3802913581155165,0.23316573966863263,0.3029167627491407,0.27351944493437275,0.2486384865609208,0.13287719019506894,0.29225038573016215,0.6213546220908559,0.5209949936536526,0.3165704473214588,0.24228964382432805,0.3063386699419475,0.24041060494761313,0.2384126669012836,0.07801639955172068,0.33729390611339816,0.6199850246467999,0.5031906431307611,0.33132412494325414,0.26871631440051824,0.30888743805300956,0.21392097332524207,0.2006384021358596,0.06542206829656028,0.24240847428018908,0.6050457927592126,0.5111146617759368,0.3560263998389386,0.2706678516182661,0.3334941888211149,0.2835585382493251,0.24622263101238895,0.08948707365622477,0.15230587534985718,0.582890465680272,0.5569899775979992,0.40758642432589487,0.21831294135855872,0.2345870517165456,0.26318933556249546,0.17250776605965212,0.15267367350922156,0.0,0.3517255191029549,0.5443711666167874,0.3984357031890968,0.20131633445352937,0.1786847596965051,0.21185750313563445,0.13581581124987885,0.12255046584960372,0.09512131156193848,0.5094500977273082,0.5520795356529287,0.43186323855711084,0.47062255891909377,0.6430381815714865,0.9314044709204197,0.6546360984827793,0.3209056330566189,0.22768359274696137,0.27995222905902173,0.26603461510378823,0.27866784493139796,0.46569343164413546,0.6410556392865674,0.9585909267467634,0.7100828945267899,0.314107104947305,0.26762638067241395,0.2994656282818611,0.32310794621551153,0.2722272095568228,0.4112894466600565,0.5801923770667408,0.8820940119531002,0.8213605513525719,0.41148213327088534,0.33869060782106963,0.35894755094749176,0.387029882782298,0.3405277902280419,0.4732585589429843,0.6629734716647113,0.9656808583498799,0.8102774601018989,0.37408493398822573,0.2885125904647077,0.29636130510692804,0.3736394999474437,0.333706230794387,0.4562819816718471,0.6233138633742272,0.9105722458665824,0.7867041352332729,0.4026753195285746,0.3216191872158447,0.3417729539709431,0.36713124127598595,0.2991743599026966,0.43711184408243664,0.6158421476116365,0.906444526150255,MI
1.0,0.7654769869012044,0.650593716875306,0.540581123418427,0.36478369347027195,0.3343705813021387,0.40392058288199983,0.7392680479240399,0.8389026312358068,0.615863132532346,0.5218980108963533,0.4276837677395715,0.2885999625703479,0.29081609369300754,0.3836965934255283,0.7432081010719371,0.9122345205867917,0.6985265171356252,0.5485651987179967,0.4793381037250777,0.3331188203697053,0.3538942749598766,0.4789444688892046,0.8367079515227616,0.929211814837839,0.6715446255499957,0.5338839965568689,0.4919454093650577,0.3799143209015563,0.37324400176897665,0.44416717054387833,0.7662811352696046,0.9286917941934449,0.7195355467423514,0.5827973794906995,0.4043190222352582,0.19142539837809114,0.1305397272202482,0.3354833476136556,0.610218425089017,0.9315303016357959,0.8506791892851817,0.6450389524107845,0.5529239726990829,0.42346251716542227,0.29597762877655676,0.335657615685073,0.5378651749292969,0.8913977328328033,0.864543972241163,0.6303508362302135,0.5173847859343308,0.42585795541049487,0.5638210706632902,0.8233229660751635,0.7045372293253664,0.3453752700160315,0.22823729352951805,0.2122879806332585,0.3723172412225768,0.4269270212865788,0.618088245241371,0.8479556187302988,0.6879703682982141,0.357697515893479,0.13535520373712195,0.0,0.19180210687167198,0.337920764416042,0.5163661680383798,0.7763548501883433,0.7747708295798268,0.427348860926406,0.3150056079776782,0.24291130033900288,0.3476561772522522,0.3291302990538676,0.4133324643261953,0.6696040877403737,0.8586052360658729,0.5928748383263103,0.3217325288623032,0.25702165744004013,0.25157406366021995,0.38089938921168676,0.40778070150154244,0.6497948139122798,0.8365053307202461,0.5758681477995866,0.26622069326905295,0.20247509173610956,0.21423894089155304,0.33286879095284627,0.3897099886948041,0.599838239748955,0.765899524104332,0.4996737025581166,0.275449599145257,0.22076171965628344,0.32852797846752946,0.4402465623460321,0.5110415870661962,0.7500483755716303,0.925965024832526,0.6615845132903639,0.3701802705724795,0.30830866692888836,0.33599352352730394,0.4152324901003279,0.3996047464100059,0.5242624240970524,0.716165527928847,0.5086658632891359,0.20304188395493838,0.1552540724204805,0.17030143479185833,0.2863240634664801,0.31654307129004344,0.5076956187011445,0.8147639957917283,0.8042917622717578,0.4836060043997401,0.4626979150265962,0.43227286031827505,0.385411673535784,0.2798894861171006,0.36580060178771046,0.6272831326406059,0.5675376457313122,0.2813160229277982,0.2389245891430436,0.22201660148099478,0.3184569713507628,0.3723071993715741,0.570935305614785,0.7522160084848153,0.5032149483421806,0.2688791064624154,0.2552080100555729,0.2983773473758311,0.3984124336110897,0.4482580260774687,0.6576245045286222,0.8550858115280491,0.6253160505115161,0.3346808174969649,0.25202289665396727,0.25684774660696563,0.3641025759438197,0.4191366602041855,0.6173612372426569,0.8094648299184866,0.5773712843752286,0.30091298164786595,0.21524625347242665,0.2570932596651896,0.3505398430506297,0.45569525726551463,0.6969589100424223,0.8454140495183853,0.5454353385186148,0.2874849825557062,0.2508543728172725,0.28213820434073433,0.2727807232148751,0.4034120376034176,0.7060709833022636,0.7751211738073325,0.4486921380306854,0.34150197673067506,0.3923400890510891,0.3532813513357307,0.3284917304670376,0.47583315948484683,0.6824826762941725,0.49029906283483493,0.1783528757850834,0.11732887326859309,0.2850051573836496,0.443319638910844,0.246337008404113,0.2179999580994303,0.47704444911382504,0.7733750903508656,0.6568532862199334,0.5051802458153283,0.46022833986424105,0.4731148075342908,0.44959238938908097,0.45106781193110423,0.7501586252887096,0.8969446283906071,0.6579084736250373,0.4596708079718699,0.4053482741657142,0.3407319071781014,0.3404597714115001,0.46692507750202195,0.8327779772582451,0.9179579078363762,0.6816976789671627,0.5924247765243043,0.4520243534226922,0.30582776865084194,0.316444060266579,0.4313574650426517,0.7767865980695237,0.8685761129187037,0.6542897659949971,0.5718175192807817,0.4611513617518317,0.32956214732244726,0.3563740050062969,0.4883569114681099,0.8507850713402267,0.9182002436485286,0.6910470713830477,0.5812672735569655,0.4817000108035687,0.3433197383174025,0.3394419290925921,0.4084039805223396,0.7526055044246793,0.8114811102449098,0.5881095203584255,0.4876138187798351,0.3980698705961392,0.2946813850175931,0.32218555173262686,0.4455347713123139,0.7451629309116776,0.6523157682042497,0.42667956544608954,0.44383600003861456,0.49952050643629553,0.5453695609671598,0.5361191132561594,0.703621862406246,0.9775431004024413,0.8153296894350581,0.5350422232172005,0.4449912343144593,0.35688947220515344,0.22650033127886715,0.25158437637463926,0.4155262251342262,0.7704774039019098,0.7452407602839046,0.5609338015605241,0.5679571165208439,0.5090709488452547,0.38624603098474486,0.412517839042815,0.5492717047727895,0.9115739295867726,MI
1.0,0.6808574328642778,0.4976320011592974,0.17463549927118427,0.36699161656378454,0.41519114652653233,0.3236931576434916,0.8026178494547369,0.7944097573492535,0.7773069320095329,0.7028616557439173,0.5022622894545097,0.7194869287671688,0.5054134640662404,0.6110448020859085,0.9733367854791637,0.777655414363593,0.7366774352382417,0.40971588067683395,0.24032763294351556,0.45513371236321687,0.24620496472136022,0.5424932715328263,0.7831146105915758,0.6519419365260366,0.6668869522646408,0.5920314767344101,0.5735655993900299,0.5112252059290006,0.05365738445561408,0.26488178067877577,0.24058819311213275,0.17102409702835963,0.5580541910420971,0.6568275045644172,0.7611992540999162,0.5569544535614148,0.21985262834783192,0.5667690578964573,0.4814543072594848,0.48223283877503187,0.7263137939411273,0.6236340397640237,0.6835478851448995,0.2413608281112345,0.13111157981080046,0.3694906846726642,0.1098095689301819,0.2540037202083911,0.534152972220876,0.7084248518323037,0.7674397820692276,0.3181360988035671,0.5467615047505734,0.7186883213119932,0.45040790214952064,0.5245669299092337,0.5274514316771319,0.6058638227681747,0.17248078789049082,0.128605953128472,0.44390580108500677,0.25026707096182577,0.41430791218802376,0.5659509344523461,0.6636804094346118,0.48391969025157566,0.1304116816912071,0.4768800975241345,0.42982292828969637,0.45137531297060596,0.7106580844793475,0.752020444068823,0.7627531310974076,0.23194593203793668,0.27615951149740514,0.4624718264439722,0.2324940401710749,0.4582880446005997,0.5314577764431894,0.5230040138140573,0.3815131490206318,0.0,0.3243260753167285,0.36779388132467883,0.46697476996093235,0.6192641567115,0.6576493846999871,0.5789682985327085,0.14294462576027112,0.42006575612438546,0.46712253451642605,0.3781823789228622,0.6507407374004526,0.6196472032916063,0.7053821665425648,0.29290038244925176,0.20613699332525304,0.5035534567908186,0.2962359624616262,0.452600320459025,0.5912895264225515,0.6483363303268423,0.466269673286126,0.08656757230196943,0.3853355838861847,0.2918746144489508,0.30078101107199373,0.5766348046398053,0.6801926450478373,0.6823356293843452,0.208910998379372,0.3742308318193954,0.48286419398237523,0.2956902283881453,0.5616718152699369,0.5774752635317109,0.6853797068526783,0.36818359699726466,0.16670931512049814,0.48537321344257345,0.2990486869074829,0.41373627309328853,0.6412820664549042,0.674666820076983,0.6454297158691031,0.17366430461735582,0.39047050221312496,0.5027118905150965,0.3544389793259448,0.6299303352148637,0.6391131818895905,0.7163125926178178,0.35651409463651706,0.15014473085642743,0.5182672304227705,0.3685671722772055,0.3957097747859182,0.5430578520939373,0.5641851099868744,0.49577170506715795,0.0675331299664923,0.3364642028581133,0.35559312166331525,0.3419338281731199,0.6272500375143975,0.6303560743337959,0.7310752855503835,0.27542932659456065,0.29057980691024987,0.5655680788513968,0.3566851167994085,0.556846796525623,0.7634685500785836,0.506946316176522,0.5405680040680405,0.6549410705590049,0.4294097559008736,0.8276438020030361,0.8704747682742746,0.7361960336232807,0.6132139707926845,0.3675520385346016,0.5246181062435933,0.3033336891661649,0.48524060009298164,0.7895191859908448,0.6199943796561218,0.6038234728213854,0.4086785739501657,0.6192881448023848,0.4852210202010938,0.47029842083990125,0.9032166449949179,0.7780098912763909,0.7557936411578021,0.510377879190826,0.4996996342018232,0.6458808971776544,0.3543178158157234,0.6974137472972428,0.8920910377383504,0.7222752667726926,0.6322109348910119,0.35167667030952376,0.5470239891419721,0.49160242370776475,0.4860357526329202,0.8852248340904678,0.7165066804828162,0.6993310578367766,0.45880350912254597,0.4756948479369836,0.6285615952246086,0.3899680827429166,0.7876450070499286,0.9030233268093348,0.6984778658679436,0.5215251240424315,0.30282979433653345,0.5262843478116079,0.3610396718091753,0.5350296846502736,0.8711593100628785,0.6963194971234112,0.6472870385244076,0.37154632212819827,0.5374308795852345,0.5286233991780356,0.3871821178260011,0.841739236182431,0.7917998379831102,0.7467654723549222,0.555184059050235,0.4694848535611933,0.6628963414185525,0.4022120666250544,0.6542415787627021,0.8826033974200782,0.7009734767893572,0.6750562670610001,0.42899426328919565,0.511763312144871,0.27300587650721697,0.45716375266693055,0.7442638728186535,0.5878256217342548,0.6350471398951121,0.3697980995328791,0.4509087523299282,0.5757116916352474,0.3675585581325378,0.8188669271935423,0.9703644047095712,0.8063609648194343,0.6703590026703976,0.44953550586241064,0.6425990916853688,0.4248644801213839,0.5569135631179103,0.9013546739379752,0.7015901790198891,0.6245548512189081,0.34993986587974746,0.4503260695795053,0.4973979749391062,0.2730763605174502,0.7041962756675004,0.7222010626094013,0.6400884649179299,0.5285206944445084,0.699467000790996,0.8518842467443442,0.5465617270502054,0.8503941261520205,MI
1.0,0.694322675183606,0.5049354645399844,0.4145495497880991,0.3739634235968552,0.43234778982409505,0.4473200968292126,0.45308510065299057,0.4732738368616447,0.32059557761311863,0.09113735769175957,0.14240107015472647,0.24022774363203436,0.3685224244244125,0.7559135880179486,0.9979666951825368,0.7573942321583571,0.5361096435255317,0.4740698916178263,0.4291469941280788,0.4649575373259687,0.4727446193373974,0.4789088518533653,0.49498840163060853,0.3856745063639493,0.13427191160700724,0.10835675059381811,0.21754992653335603,0.2731348118435868,0.5824713816703064,0.9442023317056436,0.8902827953725425,0.588286487972066,0.48996424360510593,0.427572396315826,0.46460129217495494,0.48303689696679264,0.4832176339540992,0.4984055071913476,0.4507937855963817,0.20102551885828945,0.08287516860649768,0.20076329892546396,0.2511484946411302,0.4943617238525251,0.8935103379252607,0.9353478594929165,0.6273237059206931,0.509573647715551,0.45278097185786814,0.4433864089078732,0.48260133918195525,0.4847196513862322,0.49502614773379294,0.43050792964768547,0.17117905124466293,0.08859749509949144,0.1988180698877131,0.25308946106716546,0.5186667082835976,0.9077112634627151,0.8949509147325432,0.5978191536459705,0.5179367463443181,0.4489790288270057,0.453483861681514,0.4693312450814813,0.47402229333410917,0.4766031788652043,0.4452087596284291,0.20734062052517044,0.08135470712149151,0.18262325757820008,0.2253445085618686,0.4368625193815743,0.8446420479734464,0.96977496142298,0.662790888130238,0.5025661112453936,0.446817344841151,0.44929395348722734,0.4820452987815709,0.49194371435773254,0.4997643494297517,0.4911470195351506,0.2927362362554249,0.07653096723345065,0.14226031887948154,0.2420820183693757,0.48609781495078463,0.8779679588187013,0.9161927731427211,0.6069140510383901,0.4974166556390305,0.5136868418370795,0.2504567841684795,0.014567943499924185,0.08296915360206758,0.0031168256098810243,0.12102257619527368,0.10694328796198582,0.0,0.1620679898677473,0.40566679564587416,0.44501823368659243,0.43738646592380626,0.426404396953461,0.384609415655742,0.3931170352253668,0.4535614002102779,0.5503998919312627,0.3889041711647683,0.14563850117507715,0.1433035378524654,0.0412724968137812,0.07304865658836524,0.3288716894111623,0.422594844928859,0.41797348704661497,0.4168321781351483,0.4075338054106439,0.3657548895803995,0.44111292210405306,0.4805922136326819,0.49576770131806613,0.24485566206420528,0.1651205607270636,0.08285646975011507,0.008353802914311759,0.21334324147468298,0.423561654907489,0.43530167405699105,0.42986546601376796,0.4303026449101979,0.3739706948017294,0.40839714687159345,0.4633307998780314,0.54311997966105,0.43851776960292943,0.18159435565302418,0.16821585332379607,0.05325550801677581,0.03669977376197586,0.28896240242269444,0.4462116284751243,0.43678564374569717,0.4301315992992274,0.4254012470967905,0.36558548464868124,0.4179398963863066,0.47706198633411967,0.4909548733244713,0.22357067752133908,0.15465152236418334,0.12188899410454712,0.015812105911737317,0.17434559882507394,0.40839595049124444,0.42984262058108413,0.42547307001819057,0.41746021469515426,0.3685078698270843,0.40814104552602437,0.4714069715714091,0.5804304795398338,0.42236102494718253,0.18102884043373257,0.16746635614869532,0.04375566789310814,0.04844957060841493,0.30031693598466846,0.4125330195976691,0.3968260768051728,0.3915002621528316,0.36455884991724785,0.31197447989487626,0.3825382037071763,0.49358126042429173,0.6107374663177625,0.41009602562542646,0.19070052746384003,0.21211918430056365,0.09739507931352609,0.09616050876030591,0.3485125801788207,0.46730408891339037,0.45966627842648666,0.4431312024230656,0.40641309460828534,0.38010010887886914,0.44232784175436324,0.47465597117678904,0.4385209618461765,0.19086749340115183,0.1549718869100276,0.06782784911842499,0.03732619256402514,0.27682717587657124,0.4365294835330733,0.43575915050095126,0.42925010773322647,0.41730075532810007,0.3701277856594154,0.3620834875999639,0.4294491547733452,0.4798061845843318,0.30683764988759554,0.1328224517004346,0.14554872542351616,0.04173274875166921,0.08779586720432575,0.3471214704874166,0.4375510689827591,0.4370103414182047,0.4380927554990146,0.47340174036175187,0.48256406468278845,0.4872920393822797,0.4666687879194318,0.23442222662844014,0.09414406122078867,0.18626347462250759,0.22500869889769226,0.4337764737638321,0.8332711409658198,0.9608919317660369,0.6564049142548471,0.48855467349045467,0.4283872843544949,0.4387093473156156,0.47512397213455637,0.48166894063357457,0.49227505994297127,0.4728234717958886,0.24110765889626662,0.08725641498185177,0.17985141551976147,0.2421598271262555,0.493791438554378,0.8899024956017505,0.9081031530037875,0.6048206810091807,0.5010947662885994,0.44316885885179325,0.45486081231188313,0.4896230157099133,0.5100294708833659,0.5214570892321366,0.4810645462082337,0.23335277593781245,0.13860470981026585,0.25567004038835184,0.30414219262034514,0.5619216284869077,0.9548067679530581,MI
1.0,0.694322675183606,0.5049354645399844,0.4145495497880991,0.3739634235968552,0.43234778982409505,0.4473200968292126,0.45308510065299057,0.4732738368616447,0.32059557761311863,0.09113735769175957,0.14240107015472647,0.24022774363203436,0.3685224244244125,0.7559135880179486,0.9979666951825368,0.7573942321583571,0.5361096435255317,0.4740698916178263,0.4291469941280788,0.4649575373259687,0.4727446193373974,0.4789088518533653,0.49498840163060853,0.3856745063639493,0.13427191160700724,0.10835675059381811,0.21754992653335603,0.2731348118435868,0.5824713816703064,0.9442023317056436,0.8902827953725425,0.588286487972066,0.48996424360510593,0.427572396315826,0.46460129217495494,0.48303689696679264,0.4832176339540992,0.4984055071913476,0.4507937855963817,0.20102551885828945,0.08287516860649768,0.20076329892546396,0.2511484946411302,0.4943617238525251,0.8935103379252607,0.9353478594929165,0.6273237059206931,0.509573647715551,0.45278097185786814,0.4433864089078732,0.48260133918195525,0.4847196513862322,0.49502614773379294,0.43050792964768547,0.17117905124466293,0.08859749509949144,0.1988180698877131,0.25308946106716546,0.5186667082835976,0.9077112634627151,0.8949509147325432,0.5978191536459705,0.5179367463443181,0.4489790288270057,0.453483861681514,0.4693312450814813,0.47402229333410917,0.4766031788652043,0.4452087596284291,0.20734062052517044,0.08135470712149151,0.18262325757820008,0.2253445085618686,0.4368625193815743,0.8446420479734464,0.96977496142298,0.662790888130238,0.5025661112453936,0.446817344841151,0.44929395348722734,0.4820452987815709,0.49194371435773254,0.4997643494297517,0.4911470195351506,0.2927362362554249,0.07653096723345065,0.14226031887948154,0.2420820183693757,0.48609781495078463,0.8779679588187013,0.9161927731427211,0.6069140510383901,0.4974166556390305,0.5136868418370795,0.2504567841684795,0.014567943499924185,0.08296915360206758,0.0031168256098810243,0.12102257619527368,0.10694328796198582,0.0,0.1620679898677473,0.40566679564587416,0.44501823368659243,0.43738646592380626,0.426404396953461,0.384609415655742,0.3931170352253668,0.4535614002102779,0.5503998919312627,0.3889041711647683,0.14563850117507715,0.1433035378524654,0.0412724968137812,0.07304865658836524,0.3288716894111623,0.422594844928859,0.41797348704661497,0.4168321781351483,0.4075338054106439,0.3657548895803995,0.44111292210405306,0.4805922136326819,0.49576770131806613,0.24485566206420528,0.1651205607270636,0.08285646975011507,0.008353802914311759,0.21334324147468298,0.423561654907489,0.43530167405699105,0.42986546601376796,0.4303026449101979,0.3739706948017294,0.40839714687159345,0.4633307998780314,0.54311997966105,0.43851776960292943,0.18159435565302418,0.16821585332379607,0.05325550801677581,0.03669977376197586,0.28896240242269444,0.4462116284751243,0.43678564374569717,0.4301315992992274,0.4254012470967905,0.36558548464868124,0.4179398963863066,0.47706198633411967,0.4909548733244713,0.22357067752133908,0.15465152236418334,0.12188899410454712,0.015812105911737317,0.17434559882507394,0.40839595049124444,0.42984262058108413,0.42547307001819057,0.41746021469515426,0.3685078698270843,0.40814104552602437,0.4714069715714091,0.5804304795398338,0.42236102494718253,0.18102884043373257,0.16746635614869532,0.04375566789310814,0.04844957060841493,0.30031693598466846,0.4125330195976691,0.3968260768051728,0.3915002621528316,0.36455884991724785,0.31197447989487626,0.3825382037071763,0.49358126042429173,0.6107374663177625,0.41009602562542646,0.19070052746384003,0.21211918430056365,0.09739507931352609,0.09616050876030591,0.3485125801788207,0.46730408891339037,0.45966627842648666,0.4431312024230656,0.40641309460828534,0.38010010887886914,0.44232784175436324,0.47465597117678904,0.4385209618461765,0.19086749340115183,0.1549718869100276,0.06782784911842499,0.03732619256402514,0.27682717587657124,0.4365294835330733,0.43575915050095126,0.42925010773322647,0.41730075532810007,0.3701277856594154,0.3620834875999639,0.4294491547733452,0.4798061845843318,0.30683764988759554,0.1328224517004346,0.14554872542351616,0.04173274875166921,0.08779586720432575,0.3471214704874166,0.4375510689827591,0.4370103414182047,0.4380927554990146,0.47340174036175187,0.48256406468278845,0.4872920393822797,0.4666687879194318,0.23442222662844014,0.09414406122078867,0.18626347462250759,0.22500869889769226,0.4337764737638321,0.8332711409658198,0.9608919317660369,0.6564049142548471,0.48855467349045467,0.4283872843544949,0.4387093473156156,0.47512397213455637,0.48166894063357457,0.49227505994297127,0.4728234717958886,0.24110765889626662,0.08725641498185177,0.17985141551976147,0.2421598271262555,0.493791438554378,0.8899024956017505,0.9081031530037875,0.6048206810091807,0.5010947662885994,0.44316885885179325,0.45486081231188313,0.4896230157099133,0.5100294708833659,0.5214570892321366,0.4810645462082337,0.23335277593781245,0.13860470981026585,0.25567004038835184,0.30414219262034514,0.5619216284869077,0.9548067679530581,MI
1.0,0.6808574328642778,0.4976320011592974,0.17463549927118427,0.36699161656378454,0.41519114652653233,0.3236931576434916,0.8026178494547369,0.7944097573492535,0.7773069320095329,0.7028616557439173,0.5022622894545097,0.7194869287671688,0.5054134640662404,0.6110448020859085,0.9733367854791637,0.777655414363593,0.7366774352382417,0.40971588067683395,0.24032763294351556,0.45513371236321687,0.24620496472136022,0.5424932715328263,0.7831146105915758,0.6519419365260366,0.6668869522646408,0.5920314767344101,0.5735655993900299,0.5112252059290006,0.05365738445561408,0.26488178067877577,0.24058819311213275,0.17102409702835963,0.5580541910420971,0.6568275045644172,0.7611992540999162,0.5569544535614148,0.21985262834783192,0.5667690578964573,0.4814543072594848,0.48223283877503187,0.7263137939411273,0.6236340397640237,0.6835478851448995,0.2413608281112345,0.13111157981080046,0.3694906846726642,0.1098095689301819,0.2540037202083911,0.534152972220876,0.7084248518323037,0.7674397820692276,0.3181360988035671,0.5467615047505734,0.7186883213119932,0.45040790214952064,0.5245669299092337,0.5274514316771319,0.6058638227681747,0.17248078789049082,0.128605953128472,0.44390580108500677,0.25026707096182577,0.41430791218802376,0.5659509344523461,0.6636804094346118,0.48391969025157566,0.1304116816912071,0.4768800975241345,0.42982292828969637,0.45137531297060596,0.7106580844793475,0.752020444068823,0.7627531310974076,0.23194593203793668,0.27615951149740514,0.4624718264439722,0.2324940401710749,0.4582880446005997,0.5314577764431894,0.5230040138140573,0.3815131490206318,0.0,0.3243260753167285,0.36779388132467883,0.46697476996093235,0.6192641567115,0.6576493846999871,0.5789682985327085,0.14294462576027112,0.42006575612438546,0.46712253451642605,0.3781823789228622,0.6507407374004526,0.6196472032916063,0.7053821665425648,0.29290038244925176,0.20613699332525304,0.5035534567908186,0.2962359624616262,0.452600320459025,0.5912895264225515,0.6483363303268423,0.466269673286126,0.08656757230196943,0.3853355838861847,0.2918746144489508,0.30078101107199373,0.5766348046398053,0.6801926450478373,0.6823356293843452,0.208910998379372,0.3742308318193954,0.48286419398237523,0.2956902283881453,0.5616718152699369,0.5774752635317109,0.6853797068526783,0.36818359699726466,0.16670931512049814,0.48537321344257345,0.2990486869074829,0.41373627309328853,0.6412820664549042,0.674666820076983,0.6454297158691031,0.17366430461735582,0.39047050221312496,0.5027118905150965,0.3544389793259448,0.6299303352148637,0.6391131818895905,0.7163125926178178,0.35651409463651706,0.15014473085642743,0.5182672304227705,0.3685671722772055,0.3957097747859182,0.5430578520939373,0.5641851099868744,0.49577170506715795,0.0675331299664923,0.3364642028581133,0.35559312166331525,0.3419338281731199,0.6272500375143975,0.6303560743337959,0.7310752855503835,0.27542932659456065,0.29057980691024987,0.5655680788513968,0.3566851167994085,0.556846796525623,0.7634685500785836,0.506946316176522,0.5405680040680405,0.6549410705590049,0.4294097559008736,0.8276438020030361,0.8704747682742746,0.7361960336232807,0.6132139707926845,0.3675520385346016,0.5246181062435933,0.3033336891661649,0.48524060009298164,0.7895191859908448,0.6199943796561218,0.6038234728213854,0.4086785739501657,0.6192881448023848,0.4852210202010938,0.47029842083990125,0.9032166449949179,0.7780098912763909,0.7557936411578021,0.510377879190826,0.4996996342018232,0.6458808971776544,0.3543178158157234,0.6974137472972428,0.8920910377383504,0.7222752667726926,0.6322109348910119,0.35167667030952376,0.5470239891419721,0.49160242370776475,0.4860357526329202,0.8852248340904678,0.7165066804828162,0.6993310578367766,0.45880350912254597,0.4756948479369836,0.6285615952246086,0.3899680827429166,0.7876450070499286,0.9030233268093348,0.6984778658679436,0.5215251240424315,0.30282979433653345,0.5262843478116079,0.3610396718091753,0.5350296846502736,0.8711593100628785,0.6963194971234112,0.6472870385244076,0.37154632212819827,0.5374308795852345,0.5286233991780356,0.3871821178260011,0.841739236182431,0.7917998379831102,0.7467654723549222,0.555184059050235,0.4694848535611933,0.6628963414185525,0.4022120666250544,0.6542415787627021,0.8826033974200782,0.7009734767893572,0.6750562670610001,0.42899426328919565,0.511763312144871,0.27300587650721697,0.45716375266693055,0.7442638728186535,0.5878256217342548,0.6350471398951121,0.3697980995328791,0.4509087523299282,0.5757116916352474,0.3675585581325378,0.8188669271935423,0.9703644047095712,0.8063609648194343,0.6703590026703976,0.44953550586241064,0.6425990916853688,0.4248644801213839,0.5569135631179103,0.9013546739379752,0.7015901790198891,0.6245548512189081,0.34993986587974746,0.4503260695795053,0.4973979749391062,0.2730763605174502,0.7041962756675004,0.7222010626094013,0.6400884649179299,0.5285206944445084,0.699467000790996,0.8518842467443442,0.5465617270502054,0.8503941261520205,MI
1.0,0.9249854979696077,0.9310395995695586,0.884099791728068,0.8152378256047728,0.5845663783157504,0.5879007882778553,0.7186337671636789,0.6921775075455505,0.4882734919327194,0.8061840909184275,0.8952782911435802,0.7548662590623159,0.7818499740279576,0.7782230714526706,0.7443478274151034,0.5250777180951425,0.5213835128515139,0.6919866699899866,0.6314795712804195,0.5094883075227776,0.7825296734278093,0.6890893242797893,0.726157990940258,0.7976206893086495,0.7996435501611625,0.7529976455147365,0.525713852693543,0.5432359930320718,0.6224554699298164,0.48290938450226806,0.3251253436064072,0.7229236125288367,0.7528811677852825,0.7025441309516016,0.75711167865812,0.7429470946917212,0.6881229057390348,0.4816481314148562,0.5133748456874563,0.6428465249422373,0.5108758668541289,0.5031386345711542,0.8236203639245794,0.7211053270842744,0.7318702393619798,0.7254748212438282,0.720853593617941,0.7361754959436886,0.5965911336591256,0.6350337429518946,0.6779904196335282,0.5951058312255837,0.7689442077069399,0.6760994362173394,0.3162402008331484,0.1984893244246826,0.055802413446979005,0.12277417005456392,0.48448256266707634,0.5274472924395197,0.4514276072974055,0.5738435444841534,0.6054097255915969,0.5743448872105668,0.6133919318951202,0.5727953352220729,0.6044574689379147,0.4194705771812397,0.08519502214767227,0.37053237060502564,0.47514297697012253,0.3400546380279854,0.3792433107404731,0.5745489199888731,0.6134335591324578,0.6214675830876049,0.5707045624973959,0.6361165137435951,0.3034796147969554,0.0,0.3374387091801805,0.47470598304929856,0.3816409283294395,0.4691106275849748,0.65660809401338,0.6582966651741011,0.6582404316630162,0.5768249596105095,0.5516157211870927,0.5340483595581351,0.16252718615227701,0.35589484509455716,0.5382889629544003,0.3916256187772449,0.34712592715843416,0.5843266759345673,0.6547711893171209,0.6529545227138271,0.62828508139726,0.6909304838325094,0.3312114512793034,0.16143122291099576,0.5014687710257504,0.5480047416637248,0.39545535705913526,0.5224229064646284,0.715200033933161,0.7679998844573377,0.798703608952811,0.7407753008531639,0.7991914073761235,0.4565234113455343,0.23528811540160932,0.6077594459556059,0.6859378121649238,0.5323408919872938,0.31672935205292463,0.34311425433395915,0.38081035212393743,0.45729989924602865,0.46163671555581676,0.5553450324339018,0.5466251762549157,0.10460122689996432,0.17987214946609242,0.5202377663865216,0.4891494351641499,0.32969747909952396,0.4246607305526915,0.6272190498234149,0.6881460609734873,0.7595296025157059,0.6998578733755014,0.692407099384063,0.6097961060463919,0.1819177287625644,0.3335818950934426,0.5540354872912654,0.44792710656399937,0.3784385699247115,0.5629107479533189,0.589360974250142,0.5492695147745845,0.6237956933707571,0.6278559204728453,0.7013339291873479,0.34543333009903865,0.39400760847871386,0.5891031274139911,0.4411941249706288,0.38921900385125374,0.5794743804951517,0.5898587891190834,0.5904215647393225,0.5783181052202973,0.554840919264278,0.5407555587357522,0.5585510152662758,0.1464949474650492,0.14941409414181228,0.46313798461716305,0.4550704687334721,0.33894852447689816,0.4544401761930703,0.6269352448716057,0.6411583017654947,0.6702584105657596,0.6820999736328681,0.5995490561407499,0.6685285407789077,0.3982174377131651,0.05988937484738743,0.37042259351063933,0.5093434465776943,0.38789037560033357,0.48723186713056643,0.6894376324682328,0.7116879468315225,0.6443885613929896,0.585814520472892,0.5230213315029242,0.5563222298371158,0.1504521566200938,0.17364880746242273,0.49322640734856416,0.35940762165700546,0.6136398512733003,0.713940139974675,0.697008237736878,0.7731379574546149,0.8323967735165092,0.8479833158440329,0.6606864012031033,0.5481937250403792,0.6553664893035558,0.620573746338394,0.4298292142954212,0.7712383983434541,0.8161644682516624,0.7650116434096272,0.830774221515421,0.7857371690039194,0.7709377725120183,0.7780036214224464,0.6200302452800464,0.5021604933984767,0.6009628400754057,0.5680185934653834,0.45678565141911465,0.7816299381967386,0.7151630129336701,0.6682207795169122,0.7057766631749325,0.725632573456501,0.7322620417899377,0.6607422253771551,0.5207421445934752,0.6345141500293714,0.7534735924649065,0.6269121777731193,0.8670325010736484,0.8860355061458636,0.7679961517575276,0.7109562606641817,0.6882015177944769,0.7187834589915423,0.6038926951839731,0.49486013495559567,0.6471788473593927,0.6532039481380285,0.5296163138468293,0.8631580196433388,0.850049860276112,0.8316845375088961,0.875261819188125,0.8159911416747003,0.7786255478746558,0.6437169222210946,0.4622825500433887,0.6061633247031191,0.6752489924629539,0.45082824540315825,0.5612787352586985,0.8042518622561925,0.621606356979477,0.6028286449129552,0.5557104170909883,0.5010186776506673,0.45081067526451424,0.6020161956448602,0.8050712252372239,0.8094062345622848,0.5812324197892313,0.8385621747563743,MI
0.05829444729930684,0.3102576529445255,0.5820606645746618,0.8334506670858268,0.9378875794890951,0.8502297662601475,0.8383725555723598,0.8818887902532044,0.8762127753495608,0.8800908262507054,0.7700066922576467,0.5067846748605652,0.23690490220856886,0.027312503089444606,0.12559597642696807,0.3875185306133525,0.6471042106127075,0.8862698658438402,0.9423986358692169,0.8386147162065369,0.8441055078607957,0.8749598313305409,0.8638458737928759,0.8593650373456898,0.6553502982878662,0.38275499580443156,0.1192155240744872,0.05681246480647405,0.2895714838113734,0.5502814920706522,0.8065675885247338,0.9498463860349435,0.8770417363640659,0.8273311344216808,0.8751969026611424,0.8729066918849849,0.8803396378223308,0.7176087370219848,0.448556418306859,0.17839825603544174,0.04336553416621762,0.23046489395981784,0.49811094255944444,0.7636961184449913,0.9536432337285825,0.9249960743453138,0.8310821187349463,0.869961954294184,0.8754213410800512,0.8561485023682182,0.8008922668314977,0.5569259411471649,0.29241044976194724,0.061200055889894064,0.07116800041014675,0.31850069684260396,0.5821571971328422,0.8306329629406135,0.9211939604050317,0.8334249360419105,0.8420086628679527,0.8819959115749215,0.8681293756007835,0.8675678360312283,0.6855698977980037,0.4248199666859609,0.15637668112369635,0.02900868010726189,0.2316667435270922,0.5031054728262737,0.7676839063094942,0.95071832304748,0.9221415067883527,0.9384624423840042,0.9921414188148332,0.8444342742309544,0.5868034177388066,0.3823946347785999,0.5052556719371338,0.7690381600902433,0.9314028548962627,0.9023043013509027,0.9106948593208366,0.8840679633049376,0.8581127509917589,0.9485543551172624,0.9270620576061219,0.7144472178028504,0.48359957145552457,0.5384290758491164,0.7896144522498105,0.9114257425023033,0.8954538392392791,0.9108954031220098,0.8714387965155186,0.9097224499916834,1.0,0.9060002134900325,0.6701529580752836,0.4245145344846333,0.42161852411967005,0.6455373981821797,0.8829549427682232,0.928030713451631,0.9075960696424372,0.8967521791421119,0.8568125868300684,0.941597695920454,0.9818106974845346,0.8127800481228644,0.5591949425043374,0.45372531942506134,0.6639880121131839,0.8952571640891136,0.9131752863997888,0.9004221899437445,0.8959195011200045,0.855650117797688,0.9313178971390896,0.9875285096116952,0.8371481056543368,0.5832775143353424,0.4723789052243774,0.683809966007247,0.9030569701845168,0.9125501182319575,0.9139107209618371,0.9014290001371991,0.8561312201664407,0.9271571005257093,0.9651197136035814,0.797864393478074,0.5400939080659884,0.39378138759437825,0.5813403226248002,0.8263025423381116,0.8868433888630688,0.891560033292001,0.8957567208617276,0.8675258663801634,0.8883808359609743,0.9788231752757623,0.8941895687960896,0.6517166368424526,0.45299341639535307,0.581870160758023,0.8334380180131467,0.9260713463461845,0.9239910914040912,0.9145991462850682,0.8817536715518892,0.8850855693360574,0.977576243438492,0.9078678566356659,0.6705031868099183,0.4246783801109151,0.43148545290369444,0.6834010719614736,0.8949651330810969,0.9167372099455795,0.92025277674051,0.9024241951532519,0.8579612369888362,0.9287187555487841,0.9746650580217908,0.8199064015903551,0.5698287472643151,0.4351146720488456,0.6314979638729576,0.870913581573736,0.9230329420151191,0.9166030646577932,0.8997763965827777,0.8507816352944262,0.8837749821113573,0.9612319064730381,0.8526370906594546,0.6062366159273238,0.45697714472197226,0.6408460634720934,0.8688265287070872,0.9070694983441296,0.9108566140375314,0.9067442757369586,0.8659910834215842,0.8990088550411015,0.9833564000828934,0.8888607260023804,0.6517763815925254,0.427465481165314,0.504074865837734,0.7632229890603108,0.9231164995235901,0.9222770743067281,0.9178403751332689,0.8965853669510128,0.8578071202236157,0.9430872969834387,0.9635142676731305,0.7882737596887236,0.5366215661193523,0.47037531207908156,0.7005667236760852,0.8944766378348873,0.9047670988145016,0.909218213154829,0.8994515423101864,0.8585729950210254,0.9425052919547368,0.9874385820970444,0.8418652484849835,0.610940101643218,0.3482099514601696,0.10685775308284813,0.14725921151503774,0.40638236833349173,0.6573059431633532,0.8774089322792804,0.9467895153910797,0.8449746109046048,0.8448407040596553,0.8814208407630854,0.8774375566146502,0.8634340811734655,0.7290399162902524,0.4655393972976515,0.19192802018652155,0.0,0.13452352169198567,0.40087087238516667,0.6700101508619726,0.8942324762170757,0.9203385373561306,0.8272706146919035,0.8596377480706957,0.8885421868857631,0.890485400321073,0.8633383466211868,0.6666486041885271,0.4032441869763892,0.14119416183853567,0.02182841594357765,0.22059994712436826,0.48641832639480453,0.7508887217479856,0.9375747924294693,0.9031487826780473,0.8225496388142487,0.869992263459521,0.8821073584003922,0.8718166612408884,0.8146668870846452,0.5822802083792946,0.30988660089654324,0.05627911052442343,MI
