0,1,2,3,4,5,6,7,8,9,10,11,12,13,14,15,16,17,18,19,20,21,22,23,24,25,26,27,28,29,30,31,32,33,34,35,36,37,38,39,40,41,42,43,44,45,46,47,48,49,50,51,52,53,54,55,56,57,58,59,60,61,62,63,64,65,66,67,68,69,70,71,72,73,74,75,76,77,78,79,80,81,82,83,84,85,86,87,88,89,90,91,92,93,94,95,96,97,98,99,100,101,102,103,104,105,106,107,108,109,110,111,112,113,114,115,116,117,118,119,120,121,122,123,124,125,126,127,128,129,130,131,132,133,134,135,136,137,138,139,140,141,142,143,144,145,146,147,148,149,150,151,152,153,154,155,156,157,158,159,160,161,162,163,164,165,166,167,168,169,170,171,172,173,174,175,176,177,178,179,180,181,182,183,184,185,186,187,188,189,190,191,192,193,194,195,196,197,198,199,200,201,202,203,204,205,206,207,208,209,210,211,212,213,214,215,216,217,218,219,220,221,222,223,224,225,226,227,228,229,230,231,232,233,234,235,236,237,238,239,240,241,242,243,244,245,246,247,248,249,250,251,252,253,254,Target
0.3642147326527745,0.3575426003299582,0.38048895419413675,0.43569125829208266,0.5127910293723956,0.5894450380666187,0.6396447164265417,0.6674742742670556,0.6690018257889867,0.6675044094301743,0.6250351269845962,0.5588609166329159,0.505912170053409,0.4376825136888831,0.37742905158278495,0.32327274132083605,0.2663598126509341,0.2276485664712018,0.21360310900358037,0.22270101415765664,0.2868085242326135,0.3548008915198291,0.40766621087151167,0.46758960145099726,0.519811687209971,0.5330754602258638,0.5642920159097335,0.6231010233140899,0.6672436402040951,0.6591751669059729,0.6602827010279504,0.6540917651899902,0.6156020009105885,0.5396953783076177,0.4608630220047729,0.3820288023464067,0.30323143910267625,0.23493222310940087,0.2151769094310314,0.21323681318872278,0.2170213580663809,0.24411943542284842,0.3179679074124291,0.3967984592513747,0.4756326789097409,0.5544606739090119,0.626378679717003,0.6447585366464668,0.6314822900111494,0.6343673015382598,0.6541884863813894,0.6546089052058219,0.6546312981525562,0.6663452334452917,0.706332163448113,0.7263101003955228,0.7591300472168827,0.778080493611943,0.796780536204813,0.8127102176805217,0.8129373359643473,0.8151548835852194,0.8346571531990388,0.8369244418858646,0.836924827594653,0.836924827594653,0.836924827594653,0.836924827594653,0.836924827594653,0.8367145144075478,0.8212804530702287,0.8130123843462047,0.81952120178937,0.8158455832686093,0.8129654257452796,0.82043364058906,0.8528689184684914,0.8452323832470947,0.8369650544218707,0.8369280888992621,0.8404204888582476,0.8470364004922617,0.8099373126996281,0.7766720415123523,0.7751202795469503,0.765360799869105,0.7734752279739023,0.8099359157118156,0.8478210950366734,0.8679364684678501,0.8845312488250823,0.8850870245256055,0.898151651590863,0.9088255605221973,0.9088994977023215,0.91427847629001,0.9415491718137621,0.9900375009418743,1.0000000000000004,0.9365209066513178,0.8710102183414237,0.7923806712602417,0.7136364170791265,0.6463130200204446,0.5797459012243245,0.5010327258163754,0.4222062074441961,0.348918986317849,0.2879052267200426,0.20969031389811787,0.13570918456050451,0.07536399219710432,0.01632035829063705,0.0,0.04540596479319037,0.12349710050818086,0.19020663469769694,0.25738058288702925,0.3360533344501335,0.4038270947927547,0.46956666786695545,0.5330147444094226,0.5998161275235754,0.6540430341150332,0.706254792473811,0.7478724012782809,0.7619815131612961,0.7427895765404262,0.7281395774809436,0.7170476299625275,0.7162079117068036,0.6984470855965035,0.6930001686253031,0.6929912540022158,0.6933541167875914,0.7086567330980169,0.7096681140015821,0.684202241244511,0.6838508020611096,0.6961025889567529,0.7269983206439274,0.7563144290622108,0.7943335775380662,0.8135776269013277,0.8336652934057498,0.8579097910465134,0.87775831511328,0.8843189312719968,0.8675693644320699,0.8766709580209908,0.8848886711213595,0.8851887346527549,0.8995351002585674,0.9088639693657679,0.9088916271634484,0.9089310517686413,0.9169484352724706,0.9176099910357975,0.908938539174208,0.9089409458402833,0.9180480842304308,0.9373914489835191,0.9514800874899199,0.9151480420470421,0.870447995278349,0.8513272617025214,0.8371905262481283,0.836924386883239,0.8340189721721125,0.8136704711332952,0.7801565618571074,0.7425022866047315,0.7174853513318471,0.7248552047809786,0.7607461592318598,0.7792171636620777,0.7809385219799236,0.8129708140212006,0.8278883150919585,0.8133634986766474,0.8153276928949,0.8349858557412975,0.8371381866618064,0.8506140047616673,0.8697506560180921,0.9074647330891148,0.9589238941096068,0.9210726924834653,0.8426163152141033,0.7637820999283291,0.6850796687102125,0.6192208705711439,0.5512032784328329,0.4724404616872362,0.398690583996407,0.33801945611981354,0.259990675307487,0.19198835754651755,0.13206929093068442,0.08875714350370423,0.07713967993514803,0.12371228687006086,0.19333340566176327,0.2673062368089383,0.32791490827668346,0.40527918011841013,0.466770369072381,0.5378278601496334,0.5971582974166671,0.6554284478071728,0.7029980558407329,0.7168658278549334,0.7154947149461908,0.6959216271302782,0.6928901854022147,0.6808985475205009,0.6690867165646464,0.6659612031253581,0.6468258315477153,0.6450141537281171,0.645013362077866,0.645013362077866,0.6450650874207762,0.6541571270964601,0.6539910864808753,0.6672354180714875,0.6995216832846922,0.7387614091323993,0.7641457134327774,0.7804043693909435,0.8061430730093151,0.809844886794092,0.7907391046997891,0.7889477203702553,0.7890951281664478,0.8017040259728416,0.8128561712860902,0.8129358944050544,0.8129357646080635,0.811857146683777,0.7931167859692532,0.7813739565773461,0.7780446326190136,0.7767049993301551,0.7742483984701658,0.7725433285591081,0.7738870016247446,0.8098199774319128,0.7975604178360629,0.7893080807603479,0.8040097737523486,0.8129203031648582,0.8143215181790731,0.8329322435794904,0.8241046468393902,MI
0.8730003128807724,0.8941018713973727,0.9176599311561604,0.9490310298999038,0.9686134262477399,1.0000000000000002,0.9949806491103816,0.9701990101640028,0.9362780837977323,0.9101431940304743,0.8776563927032714,0.8538110668596011,0.8186677428644977,0.787080906792262,0.7494913162448238,0.7124400239576467,0.6805766168873582,0.6463570672876571,0.6305304919984522,0.6129908191890825,0.5824079722088455,0.5797804425094017,0.5752902282678798,0.5441938163034796,0.4858832709810017,0.42651340752658107,0.367144086437339,0.31043258215736613,0.28582873673849085,0.28289352763416775,0.2858853480506147,0.31080245983809784,0.3675871228585772,0.4269564687619123,0.4863263074022395,0.5445432413616118,0.5725181733162927,0.5665090341139452,0.5677649262867812,0.5887704122183137,0.5893249462672323,0.579415983144435,0.5734242847990056,0.5723382272582895,0.5631169642623768,0.5729643031351432,0.5825186481515863,0.590746976832351,0.608317976049823,0.607166766449575,0.612767263407098,0.6085904012708483,0.6056749181015124,0.6056683827559743,0.6056683827559743,0.6044208729626581,0.5916245620680669,0.5891430840502665,0.5774508198895336,0.5806498166336074,0.5588147279490785,0.5017198491092991,0.45537125452994975,0.4076079401764334,0.3586626690860897,0.3108491220751206,0.2574147580352142,0.20844952629159352,0.15055664075938435,0.11687870801287414,0.11854004512201421,0.15253234082613765,0.20492701540062686,0.25218499322520427,0.3109921106065061,0.36675793270052304,0.41410824980655847,0.47297154277419584,0.5323417483086141,0.5915815861010307,0.6416373244931262,0.6904046921271421,0.728608663947367,0.7534275229392924,0.7749811734157424,0.7899735149393214,0.8149299272969588,0.8452616840997538,0.8692307524004883,0.8921413302623697,0.9239296651889684,0.9522988362224838,0.9840433596075668,0.9786968128047058,0.9593789945075051,0.941188225360649,0.909330535818017,0.8702805941620861,0.8386868652799115,0.8065260005801587,0.7730334231255573,0.7438121670900635,0.7118817650160969,0.680334970241925,0.6443182397173548,0.6117522375855866,0.6056809648919728,0.6056683827559743,0.6061875506126431,0.6151578102887185,0.6064960358327605,0.6054107188014479,0.594903388376691,0.590314284495556,0.6030240876531792,0.6142987008390788,0.6325992396658109,0.6175396579995274,0.6141770438759508,0.6164201554551825,0.5975896918626609,0.5896139230051733,0.5895282948974703,0.5895254519113744,0.5863245702281394,0.5776020590307176,0.5977848842481477,0.5794322437438983,0.5275910230522511,0.48136138188339284,0.43452302952054533,0.38981323145823255,0.33622664275334935,0.2768852989089219,0.21751599377159647,0.15976007001536963,0.1148280462688398,0.0912761239876485,0.1135504850079625,0.16680139430253438,0.21445996965141778,0.26978854788190776,0.31957121452410164,0.3725499737931026,0.42900905236212616,0.4758819418662352,0.5329512431198056,0.5793423976301717,0.6348308378104195,0.6770565596234916,0.7205038378434667,0.7508149915661406,0.7747800095366737,0.7914774088984846,0.8155901720411791,0.8412379360189506,0.8660725799073064,0.8925923800031537,0.9222668419808862,0.9509960517360241,0.9697894088034096,0.9576809572952525,0.928705052035087,0.8990027122645199,0.860721620174371,0.8345138291964724,0.8021784070381022,0.7717266887390284,0.7336827628537315,0.7033662184471996,0.6705173141063272,0.6375543281532672,0.6111237480820633,0.5908918461513404,0.5828236536288405,0.5735185747809683,0.5733882070389666,0.5724505925390233,0.5597231747417124,0.548753295028588,0.5411902919303062,0.5411402605113051,0.547129778222543,0.566361334917086,0.5861934678293295,0.5990072590952942,0.5899617380897249,0.5888795658405022,0.5765914862951529,0.5733960596852088,0.574638806617797,0.5901520230361765,0.6035821424479668,0.5930500894782462,0.6037617368325259,0.5925662619809813,0.540083022103534,0.4932843301437402,0.4405673461552102,0.39292522748551995,0.33410349272887285,0.2747358324114353,0.21830888772185664,0.17140466094697282,0.11279966488346704,0.060263810325563716,0.01603128934006315,0.0,0.027600495592327245,0.07740911385761318,0.12394989985308835,0.18055103347088397,0.22862495481588163,0.28360515309488776,0.3428848621838372,0.39478351630038566,0.44565276396698583,0.5048510612865587,0.5565882051609348,0.6050234064727593,0.6497342112367022,0.694984282686695,0.73521429492895,0.764767894190993,0.7871801630997906,0.8102491278409427,0.8310244940577058,0.8615919633338958,0.8924742837261161,0.9138083359763669,0.9402264764370629,0.9747038933013854,0.987915767012004,0.9653538374534072,0.9446901396707121,0.9157570895609772,0.890071203736827,0.8604602506626324,0.8293231685751146,0.7867420215585856,0.7547649255455242,0.7171695900202855,0.6809796212581924,0.6541068088074182,0.6292478084542215,0.6218787044394121,0.6217942722429759,0.6171548060978884,0.6060641192860563,0.6055323763387206,0.5963980593229248,0.5883796922900626,0.577238125938573,0.5972078925415134,0.5950158744238292,MI
0.8466338398329825,0.8847572603400868,0.9037766700936656,0.9304650888879271,0.9365696093770213,0.9641464336933376,0.9917429771567736,0.9748817545608439,0.9670885966206022,0.9387513386636135,0.898272048271127,0.8566085751353425,0.8149362773472717,0.774393535051602,0.73370959831938,0.6919931772698868,0.6505156306849251,0.6138246775445717,0.585834319203034,0.5760622190554976,0.5760233051981203,0.5760233051981203,0.5760236434497044,0.577557035557688,0.6039658869327331,0.6086443738877048,0.6086455239430917,0.6087428829641226,0.6227592272890394,0.6116250138335078,0.6086463752095792,0.6086455239430917,0.6086455239430917,0.6086455239430917,0.6086455239430917,0.6086455239430917,0.6086455239430917,0.6086455239430917,0.6086455239430917,0.6086585613157984,0.61636507794924,0.6408913875598392,0.6409729886280129,0.6180949289745108,0.6086799763375952,0.6086455239430917,0.6086455239430917,0.6086455239430917,0.6086455239430917,0.6086455239430917,0.6086455239430917,0.608643449333373,0.6030210194142072,0.5781279325555877,0.6012026434150775,0.6086423443781976,0.6086455239430917,0.6053255743374404,0.57799067806409,0.5760239760637624,0.5760233051981203,0.5760233051981203,0.5760233051981203,0.5760233051981203,0.5760233051981203,0.5757302511603237,0.5513641332820676,0.51550202194188,0.5009190838937299,0.46109696318899474,0.450095323320018,0.47809699689909557,0.5112162774401945,0.5516586067389246,0.5757387512715901,0.5756367499363746,0.5481122069970574,0.5076391626525965,0.4630532834719938,0.38838431176908195,0.3316183900619798,0.25607742498548447,0.18813486892137465,0.12409203860830864,0.05714854802723579,0.02327219471615294,0.03043511845122726,0.0976969882313643,0.17995119055328956,0.26175705486839185,0.32267163604514426,0.39411092676472226,0.4763656251889721,0.5586247885341349,0.6407928389062896,0.7072774268426274,0.7727569146983324,0.8182990794338831,0.7696705399441388,0.7376154959909345,0.7092585308745551,0.7074513769916733,0.7322253086354582,0.7391314223090344,0.7391344045605033,0.7402344867761448,0.765717293252882,0.7717549545976592,0.7745749271024964,0.8016589505414302,0.8075935700407584,0.834609734873073,0.8508713121342382,0.8778909086160507,0.9024282357023905,0.9246365931279703,0.9348634719729487,0.9345219566651481,0.9104753887757431,0.8830693078323071,0.8425560601654869,0.8020133178698154,0.7605881103457071,0.7188716892962148,0.6781348046502869,0.6375920623546154,0.5961858654721297,0.5756992541190415,0.5495553603906513,0.5215694203064158,0.518008803076067,0.5429992309911214,0.5434010864531489,0.5434010864531489,0.5434010864531489,0.5434010864531489,0.5434010864531489,0.5434010864531489,0.5434010864531489,0.5440013829430068,0.5663854062149483,0.5738055280368206,0.5470122442742795,0.5434025240223823,0.5451406132564331,0.5719889435662671,0.5756226311059152,0.5506167207048307,0.5453091017868923,0.5724959456493783,0.5760232826480145,0.5760233051981203,0.5760233051981203,0.5760233051981203,0.5760233051981203,0.5760233051981203,0.5760233051981203,0.5760233051981203,0.5760233051981203,0.5760233051981203,0.5760233051981203,0.5760233051981203,0.5760233051981203,0.5760233051981203,0.5760233051981203,0.5760233051981203,0.5760233051981203,0.5760233051981203,0.5733255854217427,0.5462567367193243,0.5493195353868288,0.5752789999809309,0.562588802812301,0.5435309910716573,0.5434010864531489,0.5434065393389691,0.5505079848878482,0.5747174317532187,0.5451012173826326,0.5124832559695482,0.4944501595714108,0.4552193821446817,0.4289538642250257,0.4278318369830556,0.46770893388013146,0.4937141588979381,0.5351033218975259,0.5714301001077553,0.57078482472925,0.5331889108420516,0.4914685040613911,0.4410469365102285,0.3871221657182282,0.30794205383576845,0.24610682222061264,0.17579530846214642,0.0940324144661524,0.04090517998340992,0.0,0.009635195122641882,0.06071767379633641,0.10013915528131623,0.15932805445830134,0.21449320443130215,0.29419292129548236,0.37645208464064517,0.4586866108096288,0.5323138546861372,0.5909395104807951,0.6728665192763286,0.7551252654445371,0.8352909378112319,0.8333080419518559,0.7800726945375578,0.7404906084298268,0.739134545498664,0.7391343989229773,0.7392429116011936,0.7573136425033002,0.7718574875893784,0.7906473928984141,0.815967753540578,0.8367998023217913,0.8372485577442372,0.8571379223677047,0.8699465287682244,0.8904135956017845,0.9056718348821775,0.9339254533039192,0.9623493821427713,0.9675718575663979,0.9823471457407837,1.0,0.9873441960751812,0.9387424172538941,0.9080214971313207,0.8675555194030169,0.8261722928802966,0.7791525868409348,0.7276227002097446,0.6858392057856273,0.6451552690534035,0.6046181642841404,0.5770726599062117,0.5760233051981203,0.5760233051981203,0.5760233051981203,0.5760233051981203,0.576023463048859,0.5773218396220141,0.6032284293572987,0.608643652284325,0.6086455239430917,0.6086455239430917,0.6086455239430917,MI
0.18021741216262654,0.17066178236432705,0.18293441365462648,0.23712796280572324,0.31218139617524887,0.39613716163162405,0.47198719539432865,0.5281754976137343,0.5610221042305374,0.5424571903348196,0.542408920674216,0.5646607186408614,0.5545470709131344,0.4860428776172414,0.4292081253068334,0.37323151231989105,0.3131186024212971,0.23392755816542987,0.17683902634854753,0.11832520501013288,0.05893649643106569,0.017521513672130506,0.00028317865458538094,0.002437387744252284,0.05566065745023563,0.1371115255450457,0.19602498740086371,0.2536105168409275,0.31745414176101683,0.37122454741488564,0.360270956731223,0.2902399947191423,0.22372404937025792,0.17009561099287662,0.1317652666913327,0.05788197587055732,0.009741586988397888,0.0,0.0032847538516951325,0.04325479820768097,0.09245269614323792,0.17297344069471077,0.24754802646564933,0.31283134236949106,0.3964889134446956,0.48021059740254657,0.5469946058020492,0.6200238040574106,0.7039804562803145,0.7879735433377624,0.8697438347158011,0.8856505282502383,0.8324070236481482,0.776702578857881,0.7328420410148997,0.6929931484919898,0.6832816394156671,0.6832613566813288,0.6832613566813288,0.6832613566813288,0.6821192468257511,0.6613031441385528,0.681267212255305,0.7012037966887341,0.6905741914102945,0.708544625733885,0.70696938848348,0.6847584264441062,0.6832735251236386,0.6897056383261999,0.6996032218595705,0.6892044240766388,0.7108543897679116,0.711720311413873,0.7025288904533875,0.6749447858353337,0.6549317084023967,0.6366562459216869,0.6250837147106783,0.601132466019064,0.5978188590210589,0.5978160133216308,0.5978160133216308,0.5978160133216308,0.5978320688959915,0.6057451947304369,0.624973567325422,0.6045506726700172,0.6137976550699156,0.6262495183353121,0.6262977944415304,0.6262977944415304,0.6262977944415304,0.6259439037698344,0.6071119856266138,0.5893832493898357,0.561799127041466,0.5412301626279623,0.5408529630366878,0.543571928510123,0.5699896204986086,0.6049390993501014,0.6259525073856427,0.626236310253371,0.6120647551401364,0.5999421337480086,0.6299444374878922,0.6498440128590106,0.6153047685507786,0.5649295253683331,0.5056434518784236,0.42363002511533576,0.33966083729656393,0.26498530930756115,0.2110541817206384,0.20360290074426146,0.26016541156993966,0.3202024912410648,0.4029451627547127,0.4769401683813177,0.5427216421546666,0.6261478215631824,0.6916342891050187,0.7659962248313619,0.8468183328233554,0.8587633445813969,0.8184029078088857,0.76269796883527,0.7191633335314842,0.7004624861695161,0.6835229705825503,0.6832613566813288,0.6832613566813288,0.6832609591634418,0.6811921281626887,0.6580693440029064,0.6765048593086185,0.6939245706019435,0.7115886854677633,0.7117431378012284,0.7106912129457212,0.6878390244302564,0.6855024493829127,0.7034695424294473,0.6845704439302338,0.6832603779441051,0.6789552459904362,0.6631005891714414,0.6703068883402397,0.6343233656937777,0.626313409686726,0.6262977944415304,0.6259530845896455,0.6080174939466847,0.620000096861574,0.6262958951894007,0.6262978054836932,0.6266755059876612,0.6468853918103914,0.6547667357726166,0.6547795755614292,0.6547795755614292,0.6547795755614292,0.6547795755614292,0.6547795755614292,0.6547784231610887,0.6505305304926603,0.6160748366453639,0.5980192841875134,0.5869497161688813,0.5749254809512285,0.5969898546875294,0.6116689030209361,0.6493349037949914,0.6686819582635168,0.65514674787656,0.6547795755614292,0.6547800624204587,0.6573536172328431,0.6649505347000995,0.6333664188889383,0.577345231336885,0.5035069200416009,0.44144964756786376,0.3595072821161551,0.29745426757815796,0.24561740191392367,0.2343360737960971,0.2776615418225701,0.35127784555874175,0.41325623505574427,0.496342565789484,0.5794794777972205,0.6420973011545241,0.7198427742601607,0.8038342300889045,0.8878275610777822,0.9713551438192729,1.0,0.9459788040313502,0.8825059926299517,0.8394242105602148,0.7884928059693888,0.7688220411021565,0.7555228528264015,0.7404220341307326,0.7401840522267307,0.7288553974428407,0.7261938105929522,0.7199218939010388,0.7118812241178407,0.724480406047106,0.7219159085396907,0.7338819580027831,0.7402230036076691,0.7402217435825165,0.7334293246189052,0.7223274101237918,0.7237313905626843,0.711835621799989,0.7117431378012284,0.7116829422064281,0.6976763348730515,0.6786781419698995,0.6562864996214044,0.6547363856500734,0.6428971534846708,0.6267092245118375,0.6407980806816607,0.6547200242633098,0.654407554131712,0.6354873828162244,0.6242255144690363,0.6011057817631071,0.6195202438338967,0.6193186157438246,0.608644410773036,0.6260890050448209,0.6262977944415304,0.6262977944415304,0.6262977944415304,0.6262977944415304,0.626243397516852,0.6129880028587245,0.5973059208548603,0.576278373031724,0.5655971293261084,0.54415131789687,0.5697285926886435,0.6019986366568624,0.6253285891136926,0.6305982959307235,0.653686856500376,0.6547795755614292,0.6547795755614292,MI
0.8973232259539188,0.9263514832944963,0.8453359701896037,0.7636153813068933,0.7110718060045347,0.6298435584929933,0.6012551377795585,0.5444006707422222,0.5405998661874474,0.5405989555915216,0.5405989555915216,0.5405989555915216,0.5405989555915216,0.5405989555915216,0.5405989555915216,0.5405989555915216,0.5405989555915216,0.5405989555915216,0.5405989555915216,0.5405989555915216,0.5405989555915216,0.5405989555915216,0.5405989555915216,0.5405989555915216,0.5405989555915216,0.5403033613609018,0.48915070631793256,0.3802453204189433,0.27880294004964057,0.2715031085427171,0.3372955545385832,0.4698840846357353,0.5385434769365265,0.597265352803733,0.6233433850724062,0.6604284620627574,0.6239601652283291,0.6750199531170225,0.6419437448136662,0.5460923930210164,0.5405999800119403,0.5399723880130551,0.4895277601289596,0.4920321416693181,0.5501272369883043,0.6714430425030322,0.8378892976788279,0.9849662011042817,0.9639800070111733,0.8817056110351089,0.7668735573779824,0.6814758457063519,0.5994711539641049,0.5427146585493805,0.5399248296753161,0.4879048814133533,0.42160223400115093,0.31731814694694727,0.2610604095259248,0.20536484949984946,0.16652550529618537,0.13222083661279882,0.07769584812780117,0.0675763491673198,0.06757486944893998,0.06757441415097531,0.06056806064388276,0.003801715150700602,9.10595925773805e-07,0.0,0.0016328144222832464,0.05092454372886479,0.11122112671225359,0.20257612828456573,0.269844045522591,0.35171351268090767,0.41250233655956237,0.4849395120741935,0.5670400240797999,0.6103495552383276,0.6889557223339793,0.7568887366595796,0.7976704278899298,0.7454383563002747,0.7433236777628327,0.7433235639383415,0.7433235639383415,0.7433235639383415,0.7433235639383415,0.7431260458199649,0.7072615066634871,0.7051199002045969,0.7430783736577347,0.7433235639383415,0.7433235639383415,0.7433235639383415,0.7433244745342691,0.7471252790890421,0.8038916245822243,0.8102237383486237,0.7584999534397348,0.7433499610705034,0.7433235639383415,0.7427446685221106,0.6895884290480634,0.617082037910647,0.604946596736978,0.5161862231916707,0.40903069129748815,0.3396967740581065,0.36786753825175644,0.4824905945988345,0.5987475346938105,0.6706120466927459,0.7286630637046674,0.7433167344688947,0.7323886945694529,0.6783431883011666,0.6655943151311927,0.5898896853522881,0.541887748445868,0.566741567109343,0.5499911928980037,0.4939264523768543,0.5176017363632948,0.6019545728910725,0.7256441333570329,0.8917996887553095,0.9999999999999982,0.9393928033618764,0.8751016615660294,0.7760881341150654,0.6643894083650519,0.5491408183864905,0.5406002076609209,0.5400677323375209,0.4889132855196401,0.4151455230804544,0.34119145721608923,0.24011641321377653,0.20289914406776433,0.2027209659631133,0.19021851475240048,0.13726453125981308,0.13514985272236935,0.13485687645503752,0.09464227786670243,0.06770002564028665,0.06757486944893998,0.0676259563458963,0.08527896436159565,0.13548103246793097,0.18204666659244317,0.26568833776429734,0.3347928366295694,0.3988083553180797,0.4807131497562338,0.5436804662066539,0.613816497096968,0.6779759770775602,0.7712143568034353,0.8109575398359894,0.8444276958289123,0.8783234568800768,0.8746089424822259,0.8197555593605106,0.8108997992811755,0.8108984333872833,0.8108975227913575,0.8031070368898767,0.7518953563438711,0.7749403291416943,0.743510444541684,0.7433235639383415,0.7426493241976466,0.6909257669377364,0.6790948288326124,0.7347432544179373,0.7331729407883305,0.6786375406577623,0.6934532447000201,0.7427446685221106,0.7433235639383415,0.7433235639383415,0.7433235639383415,0.7433235639383415,0.7429317147873302,0.6859952771607194,0.5824647962404264,0.4976912868760124,0.42081419416573596,0.4258696049882644,0.506133798394254,0.5624958054948923,0.6658542813900095,0.6785796242913591,0.7142067005374031,0.6797350137536267,0.7300955584409898,0.687126696404448,0.6610357414648842,0.5803108347037647,0.5445892587129251,0.6138125132397878,0.6625202336940887,0.6106053830339722,0.62856952357029,0.7189793854199333,0.8298663810055729,0.9636642546341481,0.9547009506705653,0.9238516304695015,0.779304046388928,0.6318881225364308,0.6004578637313376,0.544159681772399,0.5402115455956515,0.4957767624083189,0.4451970778948713,0.35149519241268123,0.2724752079936259,0.22979224441356472,0.20260457425755973,0.1643710986569289,0.13528541877977496,0.12578734582392315,0.07824552506387761,0.1219223025229823,0.07089460665999248,0.06757555239588342,0.06757498327343114,0.0696896618108731,0.12264364530345873,0.13702069667771788,0.19162528959199143,0.26257873585802294,0.2906940380806784,0.38104160639587903,0.47287560608032564,0.5412432729040315,0.6507618660533794,0.6833752461959985,0.7551138336786067,0.8102718658088186,0.8108984333872833,0.8108984333872833,0.8108947910035766,0.7983940471602242,0.7580838533046599,0.7976705417144228,0.7457551219318521,0.7629290243327755,0.7606720805060565,0.7919692277835555,0.810893425109688,MI
0.8466338398329825,0.8847572603400868,0.9037766700936656,0.9304650888879271,0.9365696093770213,0.9641464336933376,0.9917429771567736,0.9748817545608439,0.9670885966206022,0.9387513386636135,0.898272048271127,0.8566085751353425,0.8149362773472717,0.774393535051602,0.73370959831938,0.6919931772698868,0.6505156306849251,0.6138246775445717,0.585834319203034,0.5760622190554976,0.5760233051981203,0.5760233051981203,0.5760236434497044,0.577557035557688,0.6039658869327331,0.6086443738877048,0.6086455239430917,0.6087428829641226,0.6227592272890394,0.6116250138335078,0.6086463752095792,0.6086455239430917,0.6086455239430917,0.6086455239430917,0.6086455239430917,0.6086455239430917,0.6086455239430917,0.6086455239430917,0.6086455239430917,0.6086585613157984,0.61636507794924,0.6408913875598392,0.6409729886280129,0.6180949289745108,0.6086799763375952,0.6086455239430917,0.6086455239430917,0.6086455239430917,0.6086455239430917,0.6086455239430917,0.6086455239430917,0.608643449333373,0.6030210194142072,0.5781279325555877,0.6012026434150775,0.6086423443781976,0.6086455239430917,0.6053255743374404,0.57799067806409,0.5760239760637624,0.5760233051981203,0.5760233051981203,0.5760233051981203,0.5760233051981203,0.5760233051981203,0.5757302511603237,0.5513641332820676,0.51550202194188,0.5009190838937299,0.46109696318899474,0.450095323320018,0.47809699689909557,0.5112162774401945,0.5516586067389246,0.5757387512715901,0.5756367499363746,0.5481122069970574,0.5076391626525965,0.4630532834719938,0.38838431176908195,0.3316183900619798,0.25607742498548447,0.18813486892137465,0.12409203860830864,0.05714854802723579,0.02327219471615294,0.03043511845122726,0.0976969882313643,0.17995119055328956,0.26175705486839185,0.32267163604514426,0.39411092676472226,0.4763656251889721,0.5586247885341349,0.6407928389062896,0.7072774268426274,0.7727569146983324,0.8182990794338831,0.7696705399441388,0.7376154959909345,0.7092585308745551,0.7074513769916733,0.7322253086354582,0.7391314223090344,0.7391344045605033,0.7402344867761448,0.765717293252882,0.7717549545976592,0.7745749271024964,0.8016589505414302,0.8075935700407584,0.834609734873073,0.8508713121342382,0.8778909086160507,0.9024282357023905,0.9246365931279703,0.9348634719729487,0.9345219566651481,0.9104753887757431,0.8830693078323071,0.8425560601654869,0.8020133178698154,0.7605881103457071,0.7188716892962148,0.6781348046502869,0.6375920623546154,0.5961858654721297,0.5756992541190415,0.5495553603906513,0.5215694203064158,0.518008803076067,0.5429992309911214,0.5434010864531489,0.5434010864531489,0.5434010864531489,0.5434010864531489,0.5434010864531489,0.5434010864531489,0.5434010864531489,0.5440013829430068,0.5663854062149483,0.5738055280368206,0.5470122442742795,0.5434025240223823,0.5451406132564331,0.5719889435662671,0.5756226311059152,0.5506167207048307,0.5453091017868923,0.5724959456493783,0.5760232826480145,0.5760233051981203,0.5760233051981203,0.5760233051981203,0.5760233051981203,0.5760233051981203,0.5760233051981203,0.5760233051981203,0.5760233051981203,0.5760233051981203,0.5760233051981203,0.5760233051981203,0.5760233051981203,0.5760233051981203,0.5760233051981203,0.5760233051981203,0.5760233051981203,0.5760233051981203,0.5733255854217427,0.5462567367193243,0.5493195353868288,0.5752789999809309,0.562588802812301,0.5435309910716573,0.5434010864531489,0.5434065393389691,0.5505079848878482,0.5747174317532187,0.5451012173826326,0.5124832559695482,0.4944501595714108,0.4552193821446817,0.4289538642250257,0.4278318369830556,0.46770893388013146,0.4937141588979381,0.5351033218975259,0.5714301001077553,0.57078482472925,0.5331889108420516,0.4914685040613911,0.4410469365102285,0.3871221657182282,0.30794205383576845,0.24610682222061264,0.17579530846214642,0.0940324144661524,0.04090517998340992,0.0,0.009635195122641882,0.06071767379633641,0.10013915528131623,0.15932805445830134,0.21449320443130215,0.29419292129548236,0.37645208464064517,0.4586866108096288,0.5323138546861372,0.5909395104807951,0.6728665192763286,0.7551252654445371,0.8352909378112319,0.8333080419518559,0.7800726945375578,0.7404906084298268,0.739134545498664,0.7391343989229773,0.7392429116011936,0.7573136425033002,0.7718574875893784,0.7906473928984141,0.815967753540578,0.8367998023217913,0.8372485577442372,0.8571379223677047,0.8699465287682244,0.8904135956017845,0.9056718348821775,0.9339254533039192,0.9623493821427713,0.9675718575663979,0.9823471457407837,1.0,0.9873441960751812,0.9387424172538941,0.9080214971313207,0.8675555194030169,0.8261722928802966,0.7791525868409348,0.7276227002097446,0.6858392057856273,0.6451552690534035,0.6046181642841404,0.5770726599062117,0.5760233051981203,0.5760233051981203,0.5760233051981203,0.5760233051981203,0.576023463048859,0.5773218396220141,0.6032284293572987,0.608643652284325,0.6086455239430917,0.6086455239430917,0.6086455239430917,MI
0.8973232259539188,0.9263514832944963,0.8453359701896037,0.7636153813068933,0.7110718060045347,0.6298435584929933,0.6012551377795585,0.5444006707422222,0.5405998661874474,0.5405989555915216,0.5405989555915216,0.5405989555915216,0.5405989555915216,0.5405989555915216,0.5405989555915216,0.5405989555915216,0.5405989555915216,0.5405989555915216,0.5405989555915216,0.5405989555915216,0.5405989555915216,0.5405989555915216,0.5405989555915216,0.5405989555915216,0.5405989555915216,0.5403033613609018,0.48915070631793256,0.3802453204189433,0.27880294004964057,0.2715031085427171,0.3372955545385832,0.4698840846357353,0.5385434769365265,0.597265352803733,0.6233433850724062,0.6604284620627574,0.6239601652283291,0.6750199531170225,0.6419437448136662,0.5460923930210164,0.5405999800119403,0.5399723880130551,0.4895277601289596,0.4920321416693181,0.5501272369883043,0.6714430425030322,0.8378892976788279,0.9849662011042817,0.9639800070111733,0.8817056110351089,0.7668735573779824,0.6814758457063519,0.5994711539641049,0.5427146585493805,0.5399248296753161,0.4879048814133533,0.42160223400115093,0.31731814694694727,0.2610604095259248,0.20536484949984946,0.16652550529618537,0.13222083661279882,0.07769584812780117,0.0675763491673198,0.06757486944893998,0.06757441415097531,0.06056806064388276,0.003801715150700602,9.10595925773805e-07,0.0,0.0016328144222832464,0.05092454372886479,0.11122112671225359,0.20257612828456573,0.269844045522591,0.35171351268090767,0.41250233655956237,0.4849395120741935,0.5670400240797999,0.6103495552383276,0.6889557223339793,0.7568887366595796,0.7976704278899298,0.7454383563002747,0.7433236777628327,0.7433235639383415,0.7433235639383415,0.7433235639383415,0.7433235639383415,0.7431260458199649,0.7072615066634871,0.7051199002045969,0.7430783736577347,0.7433235639383415,0.7433235639383415,0.7433235639383415,0.7433244745342691,0.7471252790890421,0.8038916245822243,0.8102237383486237,0.7584999534397348,0.7433499610705034,0.7433235639383415,0.7427446685221106,0.6895884290480634,0.617082037910647,0.604946596736978,0.5161862231916707,0.40903069129748815,0.3396967740581065,0.36786753825175644,0.4824905945988345,0.5987475346938105,0.6706120466927459,0.7286630637046674,0.7433167344688947,0.7323886945694529,0.6783431883011666,0.6655943151311927,0.5898896853522881,0.541887748445868,0.566741567109343,0.5499911928980037,0.4939264523768543,0.5176017363632948,0.6019545728910725,0.7256441333570329,0.8917996887553095,0.9999999999999982,0.9393928033618764,0.8751016615660294,0.7760881341150654,0.6643894083650519,0.5491408183864905,0.5406002076609209,0.5400677323375209,0.4889132855196401,0.4151455230804544,0.34119145721608923,0.24011641321377653,0.20289914406776433,0.2027209659631133,0.19021851475240048,0.13726453125981308,0.13514985272236935,0.13485687645503752,0.09464227786670243,0.06770002564028665,0.06757486944893998,0.0676259563458963,0.08527896436159565,0.13548103246793097,0.18204666659244317,0.26568833776429734,0.3347928366295694,0.3988083553180797,0.4807131497562338,0.5436804662066539,0.613816497096968,0.6779759770775602,0.7712143568034353,0.8109575398359894,0.8444276958289123,0.8783234568800768,0.8746089424822259,0.8197555593605106,0.8108997992811755,0.8108984333872833,0.8108975227913575,0.8031070368898767,0.7518953563438711,0.7749403291416943,0.743510444541684,0.7433235639383415,0.7426493241976466,0.6909257669377364,0.6790948288326124,0.7347432544179373,0.7331729407883305,0.6786375406577623,0.6934532447000201,0.7427446685221106,0.7433235639383415,0.7433235639383415,0.7433235639383415,0.7433235639383415,0.7429317147873302,0.6859952771607194,0.5824647962404264,0.4976912868760124,0.42081419416573596,0.4258696049882644,0.506133798394254,0.5624958054948923,0.6658542813900095,0.6785796242913591,0.7142067005374031,0.6797350137536267,0.7300955584409898,0.687126696404448,0.6610357414648842,0.5803108347037647,0.5445892587129251,0.6138125132397878,0.6625202336940887,0.6106053830339722,0.62856952357029,0.7189793854199333,0.8298663810055729,0.9636642546341481,0.9547009506705653,0.9238516304695015,0.779304046388928,0.6318881225364308,0.6004578637313376,0.544159681772399,0.5402115455956515,0.4957767624083189,0.4451970778948713,0.35149519241268123,0.2724752079936259,0.22979224441356472,0.20260457425755973,0.1643710986569289,0.13528541877977496,0.12578734582392315,0.07824552506387761,0.1219223025229823,0.07089460665999248,0.06757555239588342,0.06757498327343114,0.0696896618108731,0.12264364530345873,0.13702069667771788,0.19162528959199143,0.26257873585802294,0.2906940380806784,0.38104160639587903,0.47287560608032564,0.5412432729040315,0.6507618660533794,0.6833752461959985,0.7551138336786067,0.8102718658088186,0.8108984333872833,0.8108984333872833,0.8108947910035766,0.7983940471602242,0.7580838533046599,0.7976705417144228,0.7457551219318521,0.7629290243327755,0.7606720805060565,0.7919692277835555,0.810893425109688,MI
0.24539041211554347,0.2405475767990799,0.2840230667330643,0.36638164703346243,0.4588474437226391,0.507167770053901,0.5864584032267994,0.6673664631223573,0.7615913422724616,0.8529655726661987,0.9324297572329523,0.9405930718598516,0.8613657397889107,0.7937196364536114,0.7220895204297073,0.6437713762713675,0.5897923904895115,0.5194886562412466,0.45207830152304807,0.38054062088672724,0.2919090843081813,0.222548992295446,0.14834206613635814,0.09655222717955914,0.07627078141245747,0.09489931300876675,0.18341188827413868,0.2606692450810675,0.33220217830785304,0.40399797757606803,0.4388119181836161,0.4705793899110833,0.4925612632190597,0.45468330994922157,0.40466608593104647,0.35420438075420746,0.29529955558167886,0.2000976367782643,0.10881106250978512,0.07813549397424069,0.07551481583441833,0.07944377548271042,0.10089341631197568,0.16965774732101746,0.16443180716135597,0.16381243472867624,0.19645124560771432,0.25534538451592814,0.3204129736436645,0.3808416495025724,0.454199206545685,0.5244530383140504,0.6030330700493107,0.6768844232681501,0.743374968072835,0.8026154926848821,0.8678999762183568,0.9124993164996549,0.9469207942224673,0.9701629143269321,0.9574807870430866,0.9614315042296142,0.956963967051712,0.9692163528206108,0.9517400084796956,0.9456481098940936,0.9521081296535674,0.9873283822447685,0.9690045421766071,0.9342741287457206,0.896049686205131,0.8912426348928988,0.8912340009556341,0.8912340009556341,0.8912355568153925,0.8947205656966397,0.923441339831546,0.877293800993876,0.7949804784787502,0.6999375948928956,0.6207671453598347,0.5448679417441267,0.5155134760617002,0.5650193219000861,0.6501489857356924,0.729689607908854,0.8232421900426634,0.901871703654376,0.9575610315876193,0.903469568224113,0.8363693886911077,0.776866261210515,0.7151954238229155,0.6539953125970084,0.611513909331411,0.5776956646904883,0.5398460310865709,0.49299197085287494,0.4381173447728588,0.38262887871428886,0.32532618566868754,0.274732643452793,0.22436572845088465,0.18768094791648782,0.1972271220841102,0.23379994930844505,0.2893987190395717,0.3492786379700683,0.4157224223842815,0.4907535353795063,0.558230004813931,0.625641391086075,0.7021296829909729,0.7721165720396388,0.8271017457535668,0.8745624739665323,0.9076198721952937,0.9325862167189904,0.9363643474004566,0.9283458819039168,0.9258171006053977,0.9172318581092997,0.8965045199609363,0.9053000437105987,0.8973401116135951,0.9290590319372094,0.9582486808106583,0.9025803270012172,0.8637181992999543,0.8218503237417534,0.8097105756697389,0.798700133939461,0.7827097057997219,0.7863685271914433,0.8079102821961688,0.8209249967758621,0.7886493409806019,0.6962650722098549,0.6154151461907538,0.5240274616512051,0.44869022869603326,0.39350505169114625,0.38278920700758823,0.4536777384320847,0.5330567172415077,0.631724036958262,0.7144361443858194,0.8050982051872775,0.8294713165599039,0.7600935147923322,0.6971868749515235,0.6314781763931863,0.5712945115192043,0.5206824246251753,0.47024533445950434,0.4210608010378025,0.38192285353324484,0.33259580502076025,0.2900599277230578,0.2383978581565782,0.18635905355677895,0.12417374418171256,0.0667986076116347,0.022641432231250924,0.0,0.027159378066648365,0.06824371606158852,0.1370138816954749,0.19098838196579226,0.25871311933817864,0.3342273430698941,0.40930263230868613,0.47205476183935646,0.5421159874573838,0.6114424065894908,0.6761813782305617,0.740677323060178,0.7941373873823241,0.8321906014873055,0.8511652771494966,0.8639618744601054,0.865196508712986,0.885778108277433,0.8870078317082224,0.8758086583676881,0.8708003919135963,0.8781528478558687,0.8964359403589017,0.9147320739996796,0.8819896028091585,0.8642453658966933,0.8640425011945418,0.8639820358623918,0.8530346681921661,0.842173949132039,0.8669637500729963,0.8982460177191904,0.8600206591286059,0.7641398389491934,0.682593257479271,0.5936608179343286,0.5233898943656148,0.4867661025945975,0.5159084835304717,0.5999929559418713,0.6791504189525752,0.7754636063316318,0.8568525491580874,0.948623203817649,0.9681983767019049,0.8905020173297031,0.8208123346395158,0.7665680479405608,0.7052803523126712,0.6569157545330708,0.6278760026616621,0.5789041086222402,0.5297342473709405,0.4905892632973461,0.4411871762371642,0.3904129111084269,0.32878442859307677,0.2618017157391366,0.208160344916962,0.17416495706601998,0.1588874965035525,0.19087775061812096,0.24405248364088905,0.318182281188955,0.3938810844036742,0.46174507015162236,0.5289685851133883,0.5997859109610304,0.6658600976739035,0.7241522700800744,0.7978032216005428,0.859029846192469,0.9201333920341228,0.9607865376069555,0.9886082963629925,0.9826752058231647,0.9995757288959939,0.9999999999999996,0.9999940814956187,0.994080587346319,0.9726161098006787,0.9507893914485108,0.9629666213590533,0.9921092394048725,0.9737156896942492,0.9470669418802955,0.9262787554283469,0.9184226619702343,0.9106382291127377,0.9075239347238777,MI
0.927872023056385,0.9288587817113809,0.9558485034318025,0.9597717363540594,0.9304219205135871,0.9516561749092283,0.9639281543907074,0.9639360115281921,0.9639371816275082,0.9664641663976985,0.9966800528369273,0.9982274502710968,0.9688198592777821,0.961089946576144,0.9312669630588886,0.9484800681768428,0.9638697628731343,0.9460009312456243,0.9258036542467174,0.896053050366687,0.8918096600166594,0.891808034584578,0.891808034584578,0.891808034584578,0.891808034584578,0.891808034584578,0.891808034584578,0.891808034584578,0.891808034584578,0.891808034584578,0.891808034584578,0.891808034584578,0.891808034584578,0.891960492608904,0.912853793470183,0.9188853783585049,0.8926725307841057,0.8918051755183773,0.8855506550041001,0.8537292442364697,0.8146667203339941,0.7847000083356654,0.7836452338735782,0.7937318960061681,0.8371449909935018,0.8578616287855825,0.8877812747395026,0.8948951674256307,0.9249192549454897,0.9278695451990115,0.9218419405275595,0.876254785635231,0.7989788479615569,0.7340713466583981,0.6666668429283193,0.5847990698642382,0.5038071543299232,0.4343400621951101,0.345360811900127,0.2824167157090711,0.19204636835895528,0.124211337779502,0.06781044002155756,0.08166842852511191,0.1381380973433366,0.20018325536796677,0.28939774026584164,0.380789297504859,0.44502795284993724,0.5323778227187104,0.6050743411420338,0.6411282744765714,0.6803714383924495,0.7261199609662494,0.7469358348961075,0.7216770659815834,0.7381112456184118,0.7191560289160979,0.7031655761131717,0.65870371392369,0.6373967524027213,0.6017319688303298,0.5685325810447646,0.5443312076678763,0.5148169883905771,0.47049280534858795,0.45376907864081417,0.4126521120871667,0.36606368374813236,0.336159229892667,0.2911879395080046,0.2784144262902144,0.2533617827190211,0.25289013106583,0.2783789707222555,0.2907013432099772,0.3353613816393288,0.36521233190251134,0.4193042396157427,0.4635407107855647,0.5043252090995134,0.5510905524503045,0.5981965667436091,0.645601401660806,0.7202023338219155,0.7719161210816425,0.8021372495282257,0.8581004203860942,0.8926917086707906,0.9209328824751752,0.9294399345549804,0.9580697296438174,0.9580173602065774,0.9294264288260585,0.9278721448314275,0.927872023056385,0.927872023056385,0.927872023056385,0.925417569373443,0.8956560941128071,0.8986498247753136,0.9272770718889785,0.9278655636846,0.917687935075195,0.8925086521634125,0.8976501302853874,0.9267289231312139,0.927872023056385,0.927872023056385,0.927872023056385,0.927872023056385,0.927872023056385,0.927872023056385,0.927872023056385,0.927872023056385,0.927872023056385,0.9278642082754374,0.9157058468923198,0.9036190945431883,0.9275429127216093,0.927872023056385,0.927872023056385,0.927872023056385,0.9278741461777686,0.9339936077429671,0.96297650112911,0.9598030250353036,0.9299453458505482,0.9094295228197211,0.8919268671580207,0.8918103271321058,0.8986393364098957,0.9400010346825072,0.9636815231815232,0.9644773855239812,0.9886723229907375,0.9999927782105607,1.0,0.9957942824118371,0.9334065879384337,0.8695512195211919,0.7845778219006174,0.7211337489139868,0.6326029832731637,0.5623814566072785,0.4822316052269535,0.39075602715186,0.3269673859192146,0.23919256781956388,0.15259923383452279,0.0880482526325066,0.020847634845899243,0.0,0.04220001283850916,0.09971210524814555,0.19062199378328604,0.27178997707892094,0.34103261120976747,0.4337951109697089,0.5251779457653267,0.5893542935411089,0.663787064961979,0.6820984188227568,0.7108837921313533,0.706987926680477,0.6774500932802159,0.675416770778388,0.6628893049926186,0.6397257984779623,0.62392167969365,0.5782554598600376,0.5323092088057271,0.4968476264529862,0.4742653477739269,0.431472825053115,0.3994443886950956,0.3579168987449899,0.3414058121443473,0.296835311348258,0.2763028147612161,0.24638220690058077,0.24265772986538714,0.24288330633513766,0.26662484913798945,0.30933968923829624,0.3417153249980007,0.3879794681450832,0.4339326868496167,0.4809023908537098,0.5281749885640128,0.5895598710910486,0.6394394960838321,0.7017899631782623,0.7441032949414605,0.7786053526728702,0.8259029713435213,0.8855437635018371,0.916287356085796,0.9287291280403283,0.9549590452988559,0.9639303569305966,0.9639360115281921,0.9639360115281921,0.9639360115281921,0.9639360115281921,0.9639988016834975,0.9760762167347394,0.9836875539074814,0.9676846902705893,0.9973806232243936,0.9881640612004823,0.9644075212637135,0.9639360115281921,0.9639360115281921,0.9639295097998701,0.9537200463017816,0.9387078317402295,0.9506821487624117,0.9283531488280206,0.9486057729206774,0.9639261212769652,0.9639288320952897,0.9526725290635918,0.9304219205135871,0.9593571647576615,0.9633385801757788,0.9347650461533918,0.9427283496341277,0.944686435954746,0.9335073084115493,0.9625854934406464,0.9710906365558412,0.9913356667765232,0.960107879736257,0.9298292305257689,MI
0.18021741216262654,0.17066178236432705,0.18293441365462648,0.23712796280572324,0.31218139617524887,0.39613716163162405,0.47198719539432865,0.5281754976137343,0.5610221042305374,0.5424571903348196,0.542408920674216,0.5646607186408614,0.5545470709131344,0.4860428776172414,0.4292081253068334,0.37323151231989105,0.3131186024212971,0.23392755816542987,0.17683902634854753,0.11832520501013288,0.05893649643106569,0.017521513672130506,0.00028317865458538094,0.002437387744252284,0.05566065745023563,0.1371115255450457,0.19602498740086371,0.2536105168409275,0.31745414176101683,0.37122454741488564,0.360270956731223,0.2902399947191423,0.22372404937025792,0.17009561099287662,0.1317652666913327,0.05788197587055732,0.009741586988397888,0.0,0.0032847538516951325,0.04325479820768097,0.09245269614323792,0.17297344069471077,0.24754802646564933,0.31283134236949106,0.3964889134446956,0.48021059740254657,0.5469946058020492,0.6200238040574106,0.7039804562803145,0.7879735433377624,0.8697438347158011,0.8856505282502383,0.8324070236481482,0.776702578857881,0.7328420410148997,0.6929931484919898,0.6832816394156671,0.6832613566813288,0.6832613566813288,0.6832613566813288,0.6821192468257511,0.6613031441385528,0.681267212255305,0.7012037966887341,0.6905741914102945,0.708544625733885,0.70696938848348,0.6847584264441062,0.6832735251236386,0.6897056383261999,0.6996032218595705,0.6892044240766388,0.7108543897679116,0.711720311413873,0.7025288904533875,0.6749447858353337,0.6549317084023967,0.6366562459216869,0.6250837147106783,0.601132466019064,0.5978188590210589,0.5978160133216308,0.5978160133216308,0.5978160133216308,0.5978320688959915,0.6057451947304369,0.624973567325422,0.6045506726700172,0.6137976550699156,0.6262495183353121,0.6262977944415304,0.6262977944415304,0.6262977944415304,0.6259439037698344,0.6071119856266138,0.5893832493898357,0.561799127041466,0.5412301626279623,0.5408529630366878,0.543571928510123,0.5699896204986086,0.6049390993501014,0.6259525073856427,0.626236310253371,0.6120647551401364,0.5999421337480086,0.6299444374878922,0.6498440128590106,0.6153047685507786,0.5649295253683331,0.5056434518784236,0.42363002511533576,0.33966083729656393,0.26498530930756115,0.2110541817206384,0.20360290074426146,0.26016541156993966,0.3202024912410648,0.4029451627547127,0.4769401683813177,0.5427216421546666,0.6261478215631824,0.6916342891050187,0.7659962248313619,0.8468183328233554,0.8587633445813969,0.8184029078088857,0.76269796883527,0.7191633335314842,0.7004624861695161,0.6835229705825503,0.6832613566813288,0.6832613566813288,0.6832609591634418,0.6811921281626887,0.6580693440029064,0.6765048593086185,0.6939245706019435,0.7115886854677633,0.7117431378012284,0.7106912129457212,0.6878390244302564,0.6855024493829127,0.7034695424294473,0.6845704439302338,0.6832603779441051,0.6789552459904362,0.6631005891714414,0.6703068883402397,0.6343233656937777,0.626313409686726,0.6262977944415304,0.6259530845896455,0.6080174939466847,0.620000096861574,0.6262958951894007,0.6262978054836932,0.6266755059876612,0.6468853918103914,0.6547667357726166,0.6547795755614292,0.6547795755614292,0.6547795755614292,0.6547795755614292,0.6547795755614292,0.6547784231610887,0.6505305304926603,0.6160748366453639,0.5980192841875134,0.5869497161688813,0.5749254809512285,0.5969898546875294,0.6116689030209361,0.6493349037949914,0.6686819582635168,0.65514674787656,0.6547795755614292,0.6547800624204587,0.6573536172328431,0.6649505347000995,0.6333664188889383,0.577345231336885,0.5035069200416009,0.44144964756786376,0.3595072821161551,0.29745426757815796,0.24561740191392367,0.2343360737960971,0.2776615418225701,0.35127784555874175,0.41325623505574427,0.496342565789484,0.5794794777972205,0.6420973011545241,0.7198427742601607,0.8038342300889045,0.8878275610777822,0.9713551438192729,1.0,0.9459788040313502,0.8825059926299517,0.8394242105602148,0.7884928059693888,0.7688220411021565,0.7555228528264015,0.7404220341307326,0.7401840522267307,0.7288553974428407,0.7261938105929522,0.7199218939010388,0.7118812241178407,0.724480406047106,0.7219159085396907,0.7338819580027831,0.7402230036076691,0.7402217435825165,0.7334293246189052,0.7223274101237918,0.7237313905626843,0.711835621799989,0.7117431378012284,0.7116829422064281,0.6976763348730515,0.6786781419698995,0.6562864996214044,0.6547363856500734,0.6428971534846708,0.6267092245118375,0.6407980806816607,0.6547200242633098,0.654407554131712,0.6354873828162244,0.6242255144690363,0.6011057817631071,0.6195202438338967,0.6193186157438246,0.608644410773036,0.6260890050448209,0.6262977944415304,0.6262977944415304,0.6262977944415304,0.6262977944415304,0.626243397516852,0.6129880028587245,0.5973059208548603,0.576278373031724,0.5655971293261084,0.54415131789687,0.5697285926886435,0.6019986366568624,0.6253285891136926,0.6305982959307235,0.653686856500376,0.6547795755614292,0.6547795755614292,MI
0.8730003128807724,0.8941018713973727,0.9176599311561604,0.9490310298999038,0.9686134262477399,1.0000000000000002,0.9949806491103816,0.9701990101640028,0.9362780837977323,0.9101431940304743,0.8776563927032714,0.8538110668596011,0.8186677428644977,0.787080906792262,0.7494913162448238,0.7124400239576467,0.6805766168873582,0.6463570672876571,0.6305304919984522,0.6129908191890825,0.5824079722088455,0.5797804425094017,0.5752902282678798,0.5441938163034796,0.4858832709810017,0.42651340752658107,0.367144086437339,0.31043258215736613,0.28582873673849085,0.28289352763416775,0.2858853480506147,0.31080245983809784,0.3675871228585772,0.4269564687619123,0.4863263074022395,0.5445432413616118,0.5725181733162927,0.5665090341139452,0.5677649262867812,0.5887704122183137,0.5893249462672323,0.579415983144435,0.5734242847990056,0.5723382272582895,0.5631169642623768,0.5729643031351432,0.5825186481515863,0.590746976832351,0.608317976049823,0.607166766449575,0.612767263407098,0.6085904012708483,0.6056749181015124,0.6056683827559743,0.6056683827559743,0.6044208729626581,0.5916245620680669,0.5891430840502665,0.5774508198895336,0.5806498166336074,0.5588147279490785,0.5017198491092991,0.45537125452994975,0.4076079401764334,0.3586626690860897,0.3108491220751206,0.2574147580352142,0.20844952629159352,0.15055664075938435,0.11687870801287414,0.11854004512201421,0.15253234082613765,0.20492701540062686,0.25218499322520427,0.3109921106065061,0.36675793270052304,0.41410824980655847,0.47297154277419584,0.5323417483086141,0.5915815861010307,0.6416373244931262,0.6904046921271421,0.728608663947367,0.7534275229392924,0.7749811734157424,0.7899735149393214,0.8149299272969588,0.8452616840997538,0.8692307524004883,0.8921413302623697,0.9239296651889684,0.9522988362224838,0.9840433596075668,0.9786968128047058,0.9593789945075051,0.941188225360649,0.909330535818017,0.8702805941620861,0.8386868652799115,0.8065260005801587,0.7730334231255573,0.7438121670900635,0.7118817650160969,0.680334970241925,0.6443182397173548,0.6117522375855866,0.6056809648919728,0.6056683827559743,0.6061875506126431,0.6151578102887185,0.6064960358327605,0.6054107188014479,0.594903388376691,0.590314284495556,0.6030240876531792,0.6142987008390788,0.6325992396658109,0.6175396579995274,0.6141770438759508,0.6164201554551825,0.5975896918626609,0.5896139230051733,0.5895282948974703,0.5895254519113744,0.5863245702281394,0.5776020590307176,0.5977848842481477,0.5794322437438983,0.5275910230522511,0.48136138188339284,0.43452302952054533,0.38981323145823255,0.33622664275334935,0.2768852989089219,0.21751599377159647,0.15976007001536963,0.1148280462688398,0.0912761239876485,0.1135504850079625,0.16680139430253438,0.21445996965141778,0.26978854788190776,0.31957121452410164,0.3725499737931026,0.42900905236212616,0.4758819418662352,0.5329512431198056,0.5793423976301717,0.6348308378104195,0.6770565596234916,0.7205038378434667,0.7508149915661406,0.7747800095366737,0.7914774088984846,0.8155901720411791,0.8412379360189506,0.8660725799073064,0.8925923800031537,0.9222668419808862,0.9509960517360241,0.9697894088034096,0.9576809572952525,0.928705052035087,0.8990027122645199,0.860721620174371,0.8345138291964724,0.8021784070381022,0.7717266887390284,0.7336827628537315,0.7033662184471996,0.6705173141063272,0.6375543281532672,0.6111237480820633,0.5908918461513404,0.5828236536288405,0.5735185747809683,0.5733882070389666,0.5724505925390233,0.5597231747417124,0.548753295028588,0.5411902919303062,0.5411402605113051,0.547129778222543,0.566361334917086,0.5861934678293295,0.5990072590952942,0.5899617380897249,0.5888795658405022,0.5765914862951529,0.5733960596852088,0.574638806617797,0.5901520230361765,0.6035821424479668,0.5930500894782462,0.6037617368325259,0.5925662619809813,0.540083022103534,0.4932843301437402,0.4405673461552102,0.39292522748551995,0.33410349272887285,0.2747358324114353,0.21830888772185664,0.17140466094697282,0.11279966488346704,0.060263810325563716,0.01603128934006315,0.0,0.027600495592327245,0.07740911385761318,0.12394989985308835,0.18055103347088397,0.22862495481588163,0.28360515309488776,0.3428848621838372,0.39478351630038566,0.44565276396698583,0.5048510612865587,0.5565882051609348,0.6050234064727593,0.6497342112367022,0.694984282686695,0.73521429492895,0.764767894190993,0.7871801630997906,0.8102491278409427,0.8310244940577058,0.8615919633338958,0.8924742837261161,0.9138083359763669,0.9402264764370629,0.9747038933013854,0.987915767012004,0.9653538374534072,0.9446901396707121,0.9157570895609772,0.890071203736827,0.8604602506626324,0.8293231685751146,0.7867420215585856,0.7547649255455242,0.7171695900202855,0.6809796212581924,0.6541068088074182,0.6292478084542215,0.6218787044394121,0.6217942722429759,0.6171548060978884,0.6060641192860563,0.6055323763387206,0.5963980593229248,0.5883796922900626,0.577238125938573,0.5972078925415134,0.5950158744238292,MI
0.927872023056385,0.9288587817113809,0.9558485034318025,0.9597717363540594,0.9304219205135871,0.9516561749092283,0.9639281543907074,0.9639360115281921,0.9639371816275082,0.9664641663976985,0.9966800528369273,0.9982274502710968,0.9688198592777821,0.961089946576144,0.9312669630588886,0.9484800681768428,0.9638697628731343,0.9460009312456243,0.9258036542467174,0.896053050366687,0.8918096600166594,0.891808034584578,0.891808034584578,0.891808034584578,0.891808034584578,0.891808034584578,0.891808034584578,0.891808034584578,0.891808034584578,0.891808034584578,0.891808034584578,0.891808034584578,0.891808034584578,0.891960492608904,0.912853793470183,0.9188853783585049,0.8926725307841057,0.8918051755183773,0.8855506550041001,0.8537292442364697,0.8146667203339941,0.7847000083356654,0.7836452338735782,0.7937318960061681,0.8371449909935018,0.8578616287855825,0.8877812747395026,0.8948951674256307,0.9249192549454897,0.9278695451990115,0.9218419405275595,0.876254785635231,0.7989788479615569,0.7340713466583981,0.6666668429283193,0.5847990698642382,0.5038071543299232,0.4343400621951101,0.345360811900127,0.2824167157090711,0.19204636835895528,0.124211337779502,0.06781044002155756,0.08166842852511191,0.1381380973433366,0.20018325536796677,0.28939774026584164,0.380789297504859,0.44502795284993724,0.5323778227187104,0.6050743411420338,0.6411282744765714,0.6803714383924495,0.7261199609662494,0.7469358348961075,0.7216770659815834,0.7381112456184118,0.7191560289160979,0.7031655761131717,0.65870371392369,0.6373967524027213,0.6017319688303298,0.5685325810447646,0.5443312076678763,0.5148169883905771,0.47049280534858795,0.45376907864081417,0.4126521120871667,0.36606368374813236,0.336159229892667,0.2911879395080046,0.2784144262902144,0.2533617827190211,0.25289013106583,0.2783789707222555,0.2907013432099772,0.3353613816393288,0.36521233190251134,0.4193042396157427,0.4635407107855647,0.5043252090995134,0.5510905524503045,0.5981965667436091,0.645601401660806,0.7202023338219155,0.7719161210816425,0.8021372495282257,0.8581004203860942,0.8926917086707906,0.9209328824751752,0.9294399345549804,0.9580697296438174,0.9580173602065774,0.9294264288260585,0.9278721448314275,0.927872023056385,0.927872023056385,0.927872023056385,0.925417569373443,0.8956560941128071,0.8986498247753136,0.9272770718889785,0.9278655636846,0.917687935075195,0.8925086521634125,0.8976501302853874,0.9267289231312139,0.927872023056385,0.927872023056385,0.927872023056385,0.927872023056385,0.927872023056385,0.927872023056385,0.927872023056385,0.927872023056385,0.927872023056385,0.9278642082754374,0.9157058468923198,0.9036190945431883,0.9275429127216093,0.927872023056385,0.927872023056385,0.927872023056385,0.9278741461777686,0.9339936077429671,0.96297650112911,0.9598030250353036,0.9299453458505482,0.9094295228197211,0.8919268671580207,0.8918103271321058,0.8986393364098957,0.9400010346825072,0.9636815231815232,0.9644773855239812,0.9886723229907375,0.9999927782105607,1.0,0.9957942824118371,0.9334065879384337,0.8695512195211919,0.7845778219006174,0.7211337489139868,0.6326029832731637,0.5623814566072785,0.4822316052269535,0.39075602715186,0.3269673859192146,0.23919256781956388,0.15259923383452279,0.0880482526325066,0.020847634845899243,0.0,0.04220001283850916,0.09971210524814555,0.19062199378328604,0.27178997707892094,0.34103261120976747,0.4337951109697089,0.5251779457653267,0.5893542935411089,0.663787064961979,0.6820984188227568,0.7108837921313533,0.706987926680477,0.6774500932802159,0.675416770778388,0.6628893049926186,0.6397257984779623,0.62392167969365,0.5782554598600376,0.5323092088057271,0.4968476264529862,0.4742653477739269,0.431472825053115,0.3994443886950956,0.3579168987449899,0.3414058121443473,0.296835311348258,0.2763028147612161,0.24638220690058077,0.24265772986538714,0.24288330633513766,0.26662484913798945,0.30933968923829624,0.3417153249980007,0.3879794681450832,0.4339326868496167,0.4809023908537098,0.5281749885640128,0.5895598710910486,0.6394394960838321,0.7017899631782623,0.7441032949414605,0.7786053526728702,0.8259029713435213,0.8855437635018371,0.916287356085796,0.9287291280403283,0.9549590452988559,0.9639303569305966,0.9639360115281921,0.9639360115281921,0.9639360115281921,0.9639360115281921,0.9639988016834975,0.9760762167347394,0.9836875539074814,0.9676846902705893,0.9973806232243936,0.9881640612004823,0.9644075212637135,0.9639360115281921,0.9639360115281921,0.9639295097998701,0.9537200463017816,0.9387078317402295,0.9506821487624117,0.9283531488280206,0.9486057729206774,0.9639261212769652,0.9639288320952897,0.9526725290635918,0.9304219205135871,0.9593571647576615,0.9633385801757788,0.9347650461533918,0.9427283496341277,0.944686435954746,0.9335073084115493,0.9625854934406464,0.9710906365558412,0.9913356667765232,0.960107879736257,0.9298292305257689,MI
0.2943883781175751,0.3030559277864646,0.34420360294555197,0.3925151707392567,0.40842286875429146,0.39597013956064875,0.352499470688044,0.3044872030266357,0.2650856307619067,0.23609614602282836,0.2299454805644805,0.2521253401579753,0.2954727606620784,0.2902129088584233,0.24501039308421602,0.19250902007038073,0.14896369110394247,0.14165753718358243,0.18255757436302278,0.2251468792252731,0.25119093130479864,0.2964476008519006,0.3518473867677754,0.4051373055396401,0.4530430687963749,0.5081499321817087,0.5637877006587555,0.6194254691358017,0.6750483658339275,0.7277172698306607,0.7760719353283729,0.8313570587912578,0.8869909309810953,0.9385027439891602,0.9358888287290421,0.9054726852073558,0.8656493871665081,0.8192004686476806,0.7727668766276854,0.726482779022984,0.6802847179259557,0.6347421369525785,0.5904717998037237,0.5611360260844689,0.56264927548452,0.5800012878054792,0.6005800150430143,0.5987480518400174,0.5692360541979002,0.5322769721518139,0.49385543178583946,0.4546564035270173,0.41990054486601935,0.38858211842934876,0.3700651284508991,0.3725354661786884,0.3876841742543813,0.4109065884223533,0.4281569319785805,0.42561886103071145,0.41093562686890306,0.3953828480015191,0.39270515575425513,0.3891760175788055,0.36538595643335414,0.36951290600562525,0.38292978093967056,0.37325572084760594,0.3534149167432188,0.316795530781228,0.27419275453252356,0.22851533103939992,0.1788618202565193,0.1291821283303609,0.0792790388516511,0.039122983574086945,0.04653497545662444,0.09861299782933286,0.14998753889658722,0.19945399438651812,0.25494811156760555,0.31058588004465215,0.3660300390479512,0.41524446112205027,0.4669123877118311,0.5225174697001078,0.5781552381771544,0.6337765287603387,0.6862388718741752,0.734768242306119,0.7900868278326101,0.84572160744835,0.8990777788692577,0.9163625722172348,0.8911715070925981,0.8538638188307908,0.8075890540280333,0.758339676032554,0.7046364965688767,0.6580086685769626,0.6125349672010989,0.5696034294847654,0.5371057587290211,0.5271609905493857,0.5399304515754157,0.5591929647305576,0.5614353437692117,0.529997261433695,0.48907540594912935,0.4519083108817499,0.4150080308793793,0.3806862810730858,0.34571283681137466,0.31733282544261243,0.305814553237554,0.3184012533749385,0.33954302850811646,0.36169777266749126,0.37504877316292395,0.3658139427115761,0.34963794736372567,0.34027458004562106,0.3195247788860749,0.3218781436250042,0.33440078805576245,0.33254610525745143,0.3097168197729887,0.2676338654182542,0.22421073654999768,0.1774487816549588,0.12510797294812992,0.07701574084381368,0.0257623881139728,0.0,0.028425949047219623,0.07640070980890235,0.1317204491996562,0.18735821767670258,0.24299598615374918,0.29863375463079556,0.35427152310784216,0.40969676359607643,0.45873139063384216,0.5105945267341996,0.5662031127632985,0.6218408812403433,0.6774786497173901,0.7329978304183591,0.7830196853402023,0.8338369520155733,0.889405254340395,0.9402107144081695,0.9380022884453982,0.9080685498663748,0.8717013966395122,0.8246911691808725,0.7781485647292326,0.7315869593871314,0.6780271526221471,0.629047372261317,0.5911819131226752,0.5649330803344328,0.5632998181456266,0.5837073768727199,0.6068596531385908,0.6137423434335445,0.5877200180827054,0.5485482853462489,0.5074421825898701,0.4714821229188073,0.4396680715222603,0.4078459652188109,0.38184008119843105,0.3703886676127537,0.3858212430979142,0.40848455306716347,0.4351617044970173,0.4506910563604156,0.4446455491076906,0.4374180850022147,0.4317419544428611,0.44591617973951636,0.45346960522727486,0.43476206901830916,0.4406122132250967,0.4468199186675661,0.4391106130078608,0.4130757440466233,0.3717430054285291,0.3293709640742346,0.27797889315510593,0.22277363362336877,0.17883989723982752,0.17548568894387162,0.21612095553974675,0.27042492879137203,0.3182586902872757,0.3716442060735372,0.4272751155346619,0.4823741763743701,0.5302600122226768,0.5835761050385637,0.6392068613712791,0.6948446298483257,0.7504793152872189,0.8044032125582294,0.8519723113983946,0.9067766874149519,0.9622873690602445,1.0,0.9789534728127931,0.9445174407489434,0.9013485220679005,0.8541477313082941,0.8078270391521176,0.7630786006274384,0.7165891217969111,0.6704768256689604,0.63239051675011,0.6056330610648064,0.6053812225819852,0.622190897410942,0.6277826568676583,0.6009002292115246,0.5651070890408543,0.527919598228469,0.4889960144143817,0.45378155012079224,0.4183807113356057,0.3783218360768701,0.35174028065068574,0.3462631544754087,0.36233139371908285,0.3947681579376945,0.42229742548006644,0.4302638653707005,0.42179895138677925,0.4046813296086371,0.39763662559611546,0.385003776688541,0.3856630046086402,0.3977433802253503,0.3904111350625121,0.368801279638566,0.3264106818181842,0.28350885209859245,0.23521255777561945,0.18611369685699808,0.13067989743217723,0.07607815919466421,0.04274252659127953,0.061186432292219095,0.10813846047214182,0.16345068579959565,0.2151915636452073,MI
0.24539041211554347,0.2405475767990799,0.2840230667330643,0.36638164703346243,0.4588474437226391,0.507167770053901,0.5864584032267994,0.6673664631223573,0.7615913422724616,0.8529655726661987,0.9324297572329523,0.9405930718598516,0.8613657397889107,0.7937196364536114,0.7220895204297073,0.6437713762713675,0.5897923904895115,0.5194886562412466,0.45207830152304807,0.38054062088672724,0.2919090843081813,0.222548992295446,0.14834206613635814,0.09655222717955914,0.07627078141245747,0.09489931300876675,0.18341188827413868,0.2606692450810675,0.33220217830785304,0.40399797757606803,0.4388119181836161,0.4705793899110833,0.4925612632190597,0.45468330994922157,0.40466608593104647,0.35420438075420746,0.29529955558167886,0.2000976367782643,0.10881106250978512,0.07813549397424069,0.07551481583441833,0.07944377548271042,0.10089341631197568,0.16965774732101746,0.16443180716135597,0.16381243472867624,0.19645124560771432,0.25534538451592814,0.3204129736436645,0.3808416495025724,0.454199206545685,0.5244530383140504,0.6030330700493107,0.6768844232681501,0.743374968072835,0.8026154926848821,0.8678999762183568,0.9124993164996549,0.9469207942224673,0.9701629143269321,0.9574807870430866,0.9614315042296142,0.956963967051712,0.9692163528206108,0.9517400084796956,0.9456481098940936,0.9521081296535674,0.9873283822447685,0.9690045421766071,0.9342741287457206,0.896049686205131,0.8912426348928988,0.8912340009556341,0.8912340009556341,0.8912355568153925,0.8947205656966397,0.923441339831546,0.877293800993876,0.7949804784787502,0.6999375948928956,0.6207671453598347,0.5448679417441267,0.5155134760617002,0.5650193219000861,0.6501489857356924,0.729689607908854,0.8232421900426634,0.901871703654376,0.9575610315876193,0.903469568224113,0.8363693886911077,0.776866261210515,0.7151954238229155,0.6539953125970084,0.611513909331411,0.5776956646904883,0.5398460310865709,0.49299197085287494,0.4381173447728588,0.38262887871428886,0.32532618566868754,0.274732643452793,0.22436572845088465,0.18768094791648782,0.1972271220841102,0.23379994930844505,0.2893987190395717,0.3492786379700683,0.4157224223842815,0.4907535353795063,0.558230004813931,0.625641391086075,0.7021296829909729,0.7721165720396388,0.8271017457535668,0.8745624739665323,0.9076198721952937,0.9325862167189904,0.9363643474004566,0.9283458819039168,0.9258171006053977,0.9172318581092997,0.8965045199609363,0.9053000437105987,0.8973401116135951,0.9290590319372094,0.9582486808106583,0.9025803270012172,0.8637181992999543,0.8218503237417534,0.8097105756697389,0.798700133939461,0.7827097057997219,0.7863685271914433,0.8079102821961688,0.8209249967758621,0.7886493409806019,0.6962650722098549,0.6154151461907538,0.5240274616512051,0.44869022869603326,0.39350505169114625,0.38278920700758823,0.4536777384320847,0.5330567172415077,0.631724036958262,0.7144361443858194,0.8050982051872775,0.8294713165599039,0.7600935147923322,0.6971868749515235,0.6314781763931863,0.5712945115192043,0.5206824246251753,0.47024533445950434,0.4210608010378025,0.38192285353324484,0.33259580502076025,0.2900599277230578,0.2383978581565782,0.18635905355677895,0.12417374418171256,0.0667986076116347,0.022641432231250924,0.0,0.027159378066648365,0.06824371606158852,0.1370138816954749,0.19098838196579226,0.25871311933817864,0.3342273430698941,0.40930263230868613,0.47205476183935646,0.5421159874573838,0.6114424065894908,0.6761813782305617,0.740677323060178,0.7941373873823241,0.8321906014873055,0.8511652771494966,0.8639618744601054,0.865196508712986,0.885778108277433,0.8870078317082224,0.8758086583676881,0.8708003919135963,0.8781528478558687,0.8964359403589017,0.9147320739996796,0.8819896028091585,0.8642453658966933,0.8640425011945418,0.8639820358623918,0.8530346681921661,0.842173949132039,0.8669637500729963,0.8982460177191904,0.8600206591286059,0.7641398389491934,0.682593257479271,0.5936608179343286,0.5233898943656148,0.4867661025945975,0.5159084835304717,0.5999929559418713,0.6791504189525752,0.7754636063316318,0.8568525491580874,0.948623203817649,0.9681983767019049,0.8905020173297031,0.8208123346395158,0.7665680479405608,0.7052803523126712,0.6569157545330708,0.6278760026616621,0.5789041086222402,0.5297342473709405,0.4905892632973461,0.4411871762371642,0.3904129111084269,0.32878442859307677,0.2618017157391366,0.208160344916962,0.17416495706601998,0.1588874965035525,0.19087775061812096,0.24405248364088905,0.318182281188955,0.3938810844036742,0.46174507015162236,0.5289685851133883,0.5997859109610304,0.6658600976739035,0.7241522700800744,0.7978032216005428,0.859029846192469,0.9201333920341228,0.9607865376069555,0.9886082963629925,0.9826752058231647,0.9995757288959939,0.9999999999999996,0.9999940814956187,0.994080587346319,0.9726161098006787,0.9507893914485108,0.9629666213590533,0.9921092394048725,0.9737156896942492,0.9470669418802955,0.9262787554283469,0.9184226619702343,0.9106382291127377,0.9075239347238777,MI
0.8973232259539188,0.9263514832944963,0.8453359701896037,0.7636153813068933,0.7110718060045347,0.6298435584929933,0.6012551377795585,0.5444006707422222,0.5405998661874474,0.5405989555915216,0.5405989555915216,0.5405989555915216,0.5405989555915216,0.5405989555915216,0.5405989555915216,0.5405989555915216,0.5405989555915216,0.5405989555915216,0.5405989555915216,0.5405989555915216,0.5405989555915216,0.5405989555915216,0.5405989555915216,0.5405989555915216,0.5405989555915216,0.5403033613609018,0.48915070631793256,0.3802453204189433,0.27880294004964057,0.2715031085427171,0.3372955545385832,0.4698840846357353,0.5385434769365265,0.597265352803733,0.6233433850724062,0.6604284620627574,0.6239601652283291,0.6750199531170225,0.6419437448136662,0.5460923930210164,0.5405999800119403,0.5399723880130551,0.4895277601289596,0.4920321416693181,0.5501272369883043,0.6714430425030322,0.8378892976788279,0.9849662011042817,0.9639800070111733,0.8817056110351089,0.7668735573779824,0.6814758457063519,0.5994711539641049,0.5427146585493805,0.5399248296753161,0.4879048814133533,0.42160223400115093,0.31731814694694727,0.2610604095259248,0.20536484949984946,0.16652550529618537,0.13222083661279882,0.07769584812780117,0.0675763491673198,0.06757486944893998,0.06757441415097531,0.06056806064388276,0.003801715150700602,9.10595925773805e-07,0.0,0.0016328144222832464,0.05092454372886479,0.11122112671225359,0.20257612828456573,0.269844045522591,0.35171351268090767,0.41250233655956237,0.4849395120741935,0.5670400240797999,0.6103495552383276,0.6889557223339793,0.7568887366595796,0.7976704278899298,0.7454383563002747,0.7433236777628327,0.7433235639383415,0.7433235639383415,0.7433235639383415,0.7433235639383415,0.7431260458199649,0.7072615066634871,0.7051199002045969,0.7430783736577347,0.7433235639383415,0.7433235639383415,0.7433235639383415,0.7433244745342691,0.7471252790890421,0.8038916245822243,0.8102237383486237,0.7584999534397348,0.7433499610705034,0.7433235639383415,0.7427446685221106,0.6895884290480634,0.617082037910647,0.604946596736978,0.5161862231916707,0.40903069129748815,0.3396967740581065,0.36786753825175644,0.4824905945988345,0.5987475346938105,0.6706120466927459,0.7286630637046674,0.7433167344688947,0.7323886945694529,0.6783431883011666,0.6655943151311927,0.5898896853522881,0.541887748445868,0.566741567109343,0.5499911928980037,0.4939264523768543,0.5176017363632948,0.6019545728910725,0.7256441333570329,0.8917996887553095,0.9999999999999982,0.9393928033618764,0.8751016615660294,0.7760881341150654,0.6643894083650519,0.5491408183864905,0.5406002076609209,0.5400677323375209,0.4889132855196401,0.4151455230804544,0.34119145721608923,0.24011641321377653,0.20289914406776433,0.2027209659631133,0.19021851475240048,0.13726453125981308,0.13514985272236935,0.13485687645503752,0.09464227786670243,0.06770002564028665,0.06757486944893998,0.0676259563458963,0.08527896436159565,0.13548103246793097,0.18204666659244317,0.26568833776429734,0.3347928366295694,0.3988083553180797,0.4807131497562338,0.5436804662066539,0.613816497096968,0.6779759770775602,0.7712143568034353,0.8109575398359894,0.8444276958289123,0.8783234568800768,0.8746089424822259,0.8197555593605106,0.8108997992811755,0.8108984333872833,0.8108975227913575,0.8031070368898767,0.7518953563438711,0.7749403291416943,0.743510444541684,0.7433235639383415,0.7426493241976466,0.6909257669377364,0.6790948288326124,0.7347432544179373,0.7331729407883305,0.6786375406577623,0.6934532447000201,0.7427446685221106,0.7433235639383415,0.7433235639383415,0.7433235639383415,0.7433235639383415,0.7429317147873302,0.6859952771607194,0.5824647962404264,0.4976912868760124,0.42081419416573596,0.4258696049882644,0.506133798394254,0.5624958054948923,0.6658542813900095,0.6785796242913591,0.7142067005374031,0.6797350137536267,0.7300955584409898,0.687126696404448,0.6610357414648842,0.5803108347037647,0.5445892587129251,0.6138125132397878,0.6625202336940887,0.6106053830339722,0.62856952357029,0.7189793854199333,0.8298663810055729,0.9636642546341481,0.9547009506705653,0.9238516304695015,0.779304046388928,0.6318881225364308,0.6004578637313376,0.544159681772399,0.5402115455956515,0.4957767624083189,0.4451970778948713,0.35149519241268123,0.2724752079936259,0.22979224441356472,0.20260457425755973,0.1643710986569289,0.13528541877977496,0.12578734582392315,0.07824552506387761,0.1219223025229823,0.07089460665999248,0.06757555239588342,0.06757498327343114,0.0696896618108731,0.12264364530345873,0.13702069667771788,0.19162528959199143,0.26257873585802294,0.2906940380806784,0.38104160639587903,0.47287560608032564,0.5412432729040315,0.6507618660533794,0.6833752461959985,0.7551138336786067,0.8102718658088186,0.8108984333872833,0.8108984333872833,0.8108947910035766,0.7983940471602242,0.7580838533046599,0.7976705417144228,0.7457551219318521,0.7629290243327755,0.7606720805060565,0.7919692277835555,0.810893425109688,MI
0.8466338398329825,0.8847572603400868,0.9037766700936656,0.9304650888879271,0.9365696093770213,0.9641464336933376,0.9917429771567736,0.9748817545608439,0.9670885966206022,0.9387513386636135,0.898272048271127,0.8566085751353425,0.8149362773472717,0.774393535051602,0.73370959831938,0.6919931772698868,0.6505156306849251,0.6138246775445717,0.585834319203034,0.5760622190554976,0.5760233051981203,0.5760233051981203,0.5760236434497044,0.577557035557688,0.6039658869327331,0.6086443738877048,0.6086455239430917,0.6087428829641226,0.6227592272890394,0.6116250138335078,0.6086463752095792,0.6086455239430917,0.6086455239430917,0.6086455239430917,0.6086455239430917,0.6086455239430917,0.6086455239430917,0.6086455239430917,0.6086455239430917,0.6086585613157984,0.61636507794924,0.6408913875598392,0.6409729886280129,0.6180949289745108,0.6086799763375952,0.6086455239430917,0.6086455239430917,0.6086455239430917,0.6086455239430917,0.6086455239430917,0.6086455239430917,0.608643449333373,0.6030210194142072,0.5781279325555877,0.6012026434150775,0.6086423443781976,0.6086455239430917,0.6053255743374404,0.57799067806409,0.5760239760637624,0.5760233051981203,0.5760233051981203,0.5760233051981203,0.5760233051981203,0.5760233051981203,0.5757302511603237,0.5513641332820676,0.51550202194188,0.5009190838937299,0.46109696318899474,0.450095323320018,0.47809699689909557,0.5112162774401945,0.5516586067389246,0.5757387512715901,0.5756367499363746,0.5481122069970574,0.5076391626525965,0.4630532834719938,0.38838431176908195,0.3316183900619798,0.25607742498548447,0.18813486892137465,0.12409203860830864,0.05714854802723579,0.02327219471615294,0.03043511845122726,0.0976969882313643,0.17995119055328956,0.26175705486839185,0.32267163604514426,0.39411092676472226,0.4763656251889721,0.5586247885341349,0.6407928389062896,0.7072774268426274,0.7727569146983324,0.8182990794338831,0.7696705399441388,0.7376154959909345,0.7092585308745551,0.7074513769916733,0.7322253086354582,0.7391314223090344,0.7391344045605033,0.7402344867761448,0.765717293252882,0.7717549545976592,0.7745749271024964,0.8016589505414302,0.8075935700407584,0.834609734873073,0.8508713121342382,0.8778909086160507,0.9024282357023905,0.9246365931279703,0.9348634719729487,0.9345219566651481,0.9104753887757431,0.8830693078323071,0.8425560601654869,0.8020133178698154,0.7605881103457071,0.7188716892962148,0.6781348046502869,0.6375920623546154,0.5961858654721297,0.5756992541190415,0.5495553603906513,0.5215694203064158,0.518008803076067,0.5429992309911214,0.5434010864531489,0.5434010864531489,0.5434010864531489,0.5434010864531489,0.5434010864531489,0.5434010864531489,0.5434010864531489,0.5440013829430068,0.5663854062149483,0.5738055280368206,0.5470122442742795,0.5434025240223823,0.5451406132564331,0.5719889435662671,0.5756226311059152,0.5506167207048307,0.5453091017868923,0.5724959456493783,0.5760232826480145,0.5760233051981203,0.5760233051981203,0.5760233051981203,0.5760233051981203,0.5760233051981203,0.5760233051981203,0.5760233051981203,0.5760233051981203,0.5760233051981203,0.5760233051981203,0.5760233051981203,0.5760233051981203,0.5760233051981203,0.5760233051981203,0.5760233051981203,0.5760233051981203,0.5760233051981203,0.5733255854217427,0.5462567367193243,0.5493195353868288,0.5752789999809309,0.562588802812301,0.5435309910716573,0.5434010864531489,0.5434065393389691,0.5505079848878482,0.5747174317532187,0.5451012173826326,0.5124832559695482,0.4944501595714108,0.4552193821446817,0.4289538642250257,0.4278318369830556,0.46770893388013146,0.4937141588979381,0.5351033218975259,0.5714301001077553,0.57078482472925,0.5331889108420516,0.4914685040613911,0.4410469365102285,0.3871221657182282,0.30794205383576845,0.24610682222061264,0.17579530846214642,0.0940324144661524,0.04090517998340992,0.0,0.009635195122641882,0.06071767379633641,0.10013915528131623,0.15932805445830134,0.21449320443130215,0.29419292129548236,0.37645208464064517,0.4586866108096288,0.5323138546861372,0.5909395104807951,0.6728665192763286,0.7551252654445371,0.8352909378112319,0.8333080419518559,0.7800726945375578,0.7404906084298268,0.739134545498664,0.7391343989229773,0.7392429116011936,0.7573136425033002,0.7718574875893784,0.7906473928984141,0.815967753540578,0.8367998023217913,0.8372485577442372,0.8571379223677047,0.8699465287682244,0.8904135956017845,0.9056718348821775,0.9339254533039192,0.9623493821427713,0.9675718575663979,0.9823471457407837,1.0,0.9873441960751812,0.9387424172538941,0.9080214971313207,0.8675555194030169,0.8261722928802966,0.7791525868409348,0.7276227002097446,0.6858392057856273,0.6451552690534035,0.6046181642841404,0.5770726599062117,0.5760233051981203,0.5760233051981203,0.5760233051981203,0.5760233051981203,0.576023463048859,0.5773218396220141,0.6032284293572987,0.608643652284325,0.6086455239430917,0.6086455239430917,0.6086455239430917,MI
0.7686835796868265,0.7861396626608848,0.7925559483013254,0.7889295010937643,0.7791282647608668,0.7725324769595538,0.7654730669054619,0.772216955879242,0.7922338515971148,0.8106355425933169,0.8242378831822248,0.8611641492592483,0.8943234053984346,0.8761039835355249,0.8326982595208847,0.7828932236915791,0.7352427279692111,0.6924835282537172,0.6429672724479962,0.5930050139685443,0.5430515200602277,0.49549649875398916,0.45266110679822846,0.4031244599195931,0.35316219323968867,0.303199992983451,0.2537497224461802,0.21107727384536235,0.16327474689204147,0.11336886047988359,0.06774728652138085,0.03003600971519782,0.028743731404692774,0.06763467468314888,0.1110899166751983,0.1589923519903489,0.20147264006986032,0.2507747746511537,0.3004089870625759,0.3436101017716158,0.39070677945676335,0.44031483313646547,0.48347016279749666,0.5302759569662272,0.5733588370272957,0.6169114911818894,0.653869194743254,0.6707280947940506,0.6632653816131222,0.6558841382474485,0.6585207873102485,0.646505513362212,0.634901600935484,0.6265604951976496,0.6463057985922815,0.6740532048670895,0.6985127038556045,0.7247900575992059,0.7509906749560076,0.7673779040838804,0.7755586565285613,0.7642004280573944,0.7502077571869332,0.7283287377692547,0.7478259534730776,0.7552737254714268,0.7496858551657826,0.7513328244822159,0.7650564300139728,0.7766664953446718,0.7767523124792697,0.7755234467875598,0.7780953031735964,0.7985251135446023,0.8195540189643287,0.8190840481917556,0.8370986482210314,0.8645416529249672,0.8760269907075666,0.883131441678213,0.923359730801603,0.965288729682412,1.0,0.9889085948077787,0.9442240938488116,0.8963144279485198,0.853799043401879,0.8043480390294842,0.7543858067914804,0.704428738171152,0.6565681987332976,0.6139766219463905,0.5645052265010813,0.5145429860626249,0.46458061851715193,0.41461927009680943,0.3657103522987566,0.32349703092786597,0.27469880053761275,0.22473899272079634,0.1758814042851815,0.13365243129742876,0.08527836343418105,0.04562729071212379,0.035225015174785046,0.0701299675675956,0.11859145000541871,0.1610052930444994,0.2092597229293407,0.25894808129303337,0.3023625342748193,0.3491913564458198,0.3983735867377858,0.44076420656560766,0.48909125496981876,0.537305944101347,0.5797195632370891,0.6257268069319175,0.6671366604656372,0.6996037936365667,0.7119928827142665,0.6999287527467053,0.6837051309350564,0.6680671641807787,0.6535502274353155,0.6452482403517288,0.6547626254681052,0.6817072799538331,0.7025266236639003,0.7319856113360217,0.7588907006421564,0.7813087133827459,0.7920111467952207,0.7863996115017902,0.7737035186536634,0.7757275451488328,0.7747570273675981,0.7838199127724716,0.796594166285981,0.8102366926840041,0.8204339736696549,0.8330648045388249,0.8332590790812575,0.8153668343411133,0.7889000199676124,0.7677770071030705,0.7547182839025541,0.7669913869938287,0.7881955668974494,0.7893898188801927,0.8091963892258354,0.8463941302586513,0.8805512205697004,0.8640556107725439,0.8165098139905185,0.7717149126238616,0.7264071100396876,0.6765101916501797,0.6265483062913273,0.5774211072869617,0.535167918005359,0.48662733036537675,0.4366673709213247,0.3867268353440534,0.3402793172649221,0.2965600953220693,0.24678691199762426,0.1969211161285358,0.15240734042415838,0.1068457156946091,0.061028561660023795,0.0388854095155271,0.06323320783586572,0.10713124732467005,0.15077003004303635,0.19719845323894147,0.24713876539671298,0.2971011329421862,0.3470502013011296,0.3942326765449351,0.43732392444074764,0.4869812496274202,0.5363146313242038,0.5786988793404815,0.6219529136794479,0.6594424632043394,0.6861685604758043,0.6851099684521993,0.6765898831156658,0.662565176312244,0.6445348664831583,0.6289434256779898,0.6322978414283764,0.646717580106422,0.6667924996760315,0.6964847650537362,0.7271843131195301,0.7491224949472914,0.7738988934500686,0.782619709551277,0.7821929046490828,0.7779066841777535,0.773576972825379,0.763207719959194,0.7660934247026587,0.7725056687054832,0.7735843205126847,0.7811912819081404,0.7818957345888942,0.765543166939975,0.7529784710518919,0.7463465406553302,0.7438667125152774,0.7565292034139124,0.7585420837112462,0.7753310035669774,0.8061068569294907,0.8486049571237033,0.8620469644675668,0.8268857822404128,0.7787756861224722,0.7288210314047967,0.6804382395717326,0.638063379606749,0.5888994624903647,0.5389377570707425,0.48897538952526953,0.4390873813276486,0.39402628356549174,0.34897416833262307,0.29909493634188733,0.24921048119838107,0.2042369549654688,0.15909961061549782,0.10929506035105763,0.06439064924154236,0.021344684057323593,0.0,0.026436646846836,0.07508649914206644,0.12503929732893626,0.17262655658198067,0.21542128915090286,0.26492508538366755,0.3107604227310261,0.3550464762898393,0.40484183076287206,0.45061507144121293,0.4949547851125202,0.543573698091155,0.5852587921318904,0.6253925955004094,0.6518128333051922,0.6582074582261916,0.6459639567269464,MI
0.24539041211554347,0.2405475767990799,0.2840230667330643,0.36638164703346243,0.4588474437226391,0.507167770053901,0.5864584032267994,0.6673664631223573,0.7615913422724616,0.8529655726661987,0.9324297572329523,0.9405930718598516,0.8613657397889107,0.7937196364536114,0.7220895204297073,0.6437713762713675,0.5897923904895115,0.5194886562412466,0.45207830152304807,0.38054062088672724,0.2919090843081813,0.222548992295446,0.14834206613635814,0.09655222717955914,0.07627078141245747,0.09489931300876675,0.18341188827413868,0.2606692450810675,0.33220217830785304,0.40399797757606803,0.4388119181836161,0.4705793899110833,0.4925612632190597,0.45468330994922157,0.40466608593104647,0.35420438075420746,0.29529955558167886,0.2000976367782643,0.10881106250978512,0.07813549397424069,0.07551481583441833,0.07944377548271042,0.10089341631197568,0.16965774732101746,0.16443180716135597,0.16381243472867624,0.19645124560771432,0.25534538451592814,0.3204129736436645,0.3808416495025724,0.454199206545685,0.5244530383140504,0.6030330700493107,0.6768844232681501,0.743374968072835,0.8026154926848821,0.8678999762183568,0.9124993164996549,0.9469207942224673,0.9701629143269321,0.9574807870430866,0.9614315042296142,0.956963967051712,0.9692163528206108,0.9517400084796956,0.9456481098940936,0.9521081296535674,0.9873283822447685,0.9690045421766071,0.9342741287457206,0.896049686205131,0.8912426348928988,0.8912340009556341,0.8912340009556341,0.8912355568153925,0.8947205656966397,0.923441339831546,0.877293800993876,0.7949804784787502,0.6999375948928956,0.6207671453598347,0.5448679417441267,0.5155134760617002,0.5650193219000861,0.6501489857356924,0.729689607908854,0.8232421900426634,0.901871703654376,0.9575610315876193,0.903469568224113,0.8363693886911077,0.776866261210515,0.7151954238229155,0.6539953125970084,0.611513909331411,0.5776956646904883,0.5398460310865709,0.49299197085287494,0.4381173447728588,0.38262887871428886,0.32532618566868754,0.274732643452793,0.22436572845088465,0.18768094791648782,0.1972271220841102,0.23379994930844505,0.2893987190395717,0.3492786379700683,0.4157224223842815,0.4907535353795063,0.558230004813931,0.625641391086075,0.7021296829909729,0.7721165720396388,0.8271017457535668,0.8745624739665323,0.9076198721952937,0.9325862167189904,0.9363643474004566,0.9283458819039168,0.9258171006053977,0.9172318581092997,0.8965045199609363,0.9053000437105987,0.8973401116135951,0.9290590319372094,0.9582486808106583,0.9025803270012172,0.8637181992999543,0.8218503237417534,0.8097105756697389,0.798700133939461,0.7827097057997219,0.7863685271914433,0.8079102821961688,0.8209249967758621,0.7886493409806019,0.6962650722098549,0.6154151461907538,0.5240274616512051,0.44869022869603326,0.39350505169114625,0.38278920700758823,0.4536777384320847,0.5330567172415077,0.631724036958262,0.7144361443858194,0.8050982051872775,0.8294713165599039,0.7600935147923322,0.6971868749515235,0.6314781763931863,0.5712945115192043,0.5206824246251753,0.47024533445950434,0.4210608010378025,0.38192285353324484,0.33259580502076025,0.2900599277230578,0.2383978581565782,0.18635905355677895,0.12417374418171256,0.0667986076116347,0.022641432231250924,0.0,0.027159378066648365,0.06824371606158852,0.1370138816954749,0.19098838196579226,0.25871311933817864,0.3342273430698941,0.40930263230868613,0.47205476183935646,0.5421159874573838,0.6114424065894908,0.6761813782305617,0.740677323060178,0.7941373873823241,0.8321906014873055,0.8511652771494966,0.8639618744601054,0.865196508712986,0.885778108277433,0.8870078317082224,0.8758086583676881,0.8708003919135963,0.8781528478558687,0.8964359403589017,0.9147320739996796,0.8819896028091585,0.8642453658966933,0.8640425011945418,0.8639820358623918,0.8530346681921661,0.842173949132039,0.8669637500729963,0.8982460177191904,0.8600206591286059,0.7641398389491934,0.682593257479271,0.5936608179343286,0.5233898943656148,0.4867661025945975,0.5159084835304717,0.5999929559418713,0.6791504189525752,0.7754636063316318,0.8568525491580874,0.948623203817649,0.9681983767019049,0.8905020173297031,0.8208123346395158,0.7665680479405608,0.7052803523126712,0.6569157545330708,0.6278760026616621,0.5789041086222402,0.5297342473709405,0.4905892632973461,0.4411871762371642,0.3904129111084269,0.32878442859307677,0.2618017157391366,0.208160344916962,0.17416495706601998,0.1588874965035525,0.19087775061812096,0.24405248364088905,0.318182281188955,0.3938810844036742,0.46174507015162236,0.5289685851133883,0.5997859109610304,0.6658600976739035,0.7241522700800744,0.7978032216005428,0.859029846192469,0.9201333920341228,0.9607865376069555,0.9886082963629925,0.9826752058231647,0.9995757288959939,0.9999999999999996,0.9999940814956187,0.994080587346319,0.9726161098006787,0.9507893914485108,0.9629666213590533,0.9921092394048725,0.9737156896942492,0.9470669418802955,0.9262787554283469,0.9184226619702343,0.9106382291127377,0.9075239347238777,MI
0.2943883781175751,0.3030559277864646,0.34420360294555197,0.3925151707392567,0.40842286875429146,0.39597013956064875,0.352499470688044,0.3044872030266357,0.2650856307619067,0.23609614602282836,0.2299454805644805,0.2521253401579753,0.2954727606620784,0.2902129088584233,0.24501039308421602,0.19250902007038073,0.14896369110394247,0.14165753718358243,0.18255757436302278,0.2251468792252731,0.25119093130479864,0.2964476008519006,0.3518473867677754,0.4051373055396401,0.4530430687963749,0.5081499321817087,0.5637877006587555,0.6194254691358017,0.6750483658339275,0.7277172698306607,0.7760719353283729,0.8313570587912578,0.8869909309810953,0.9385027439891602,0.9358888287290421,0.9054726852073558,0.8656493871665081,0.8192004686476806,0.7727668766276854,0.726482779022984,0.6802847179259557,0.6347421369525785,0.5904717998037237,0.5611360260844689,0.56264927548452,0.5800012878054792,0.6005800150430143,0.5987480518400174,0.5692360541979002,0.5322769721518139,0.49385543178583946,0.4546564035270173,0.41990054486601935,0.38858211842934876,0.3700651284508991,0.3725354661786884,0.3876841742543813,0.4109065884223533,0.4281569319785805,0.42561886103071145,0.41093562686890306,0.3953828480015191,0.39270515575425513,0.3891760175788055,0.36538595643335414,0.36951290600562525,0.38292978093967056,0.37325572084760594,0.3534149167432188,0.316795530781228,0.27419275453252356,0.22851533103939992,0.1788618202565193,0.1291821283303609,0.0792790388516511,0.039122983574086945,0.04653497545662444,0.09861299782933286,0.14998753889658722,0.19945399438651812,0.25494811156760555,0.31058588004465215,0.3660300390479512,0.41524446112205027,0.4669123877118311,0.5225174697001078,0.5781552381771544,0.6337765287603387,0.6862388718741752,0.734768242306119,0.7900868278326101,0.84572160744835,0.8990777788692577,0.9163625722172348,0.8911715070925981,0.8538638188307908,0.8075890540280333,0.758339676032554,0.7046364965688767,0.6580086685769626,0.6125349672010989,0.5696034294847654,0.5371057587290211,0.5271609905493857,0.5399304515754157,0.5591929647305576,0.5614353437692117,0.529997261433695,0.48907540594912935,0.4519083108817499,0.4150080308793793,0.3806862810730858,0.34571283681137466,0.31733282544261243,0.305814553237554,0.3184012533749385,0.33954302850811646,0.36169777266749126,0.37504877316292395,0.3658139427115761,0.34963794736372567,0.34027458004562106,0.3195247788860749,0.3218781436250042,0.33440078805576245,0.33254610525745143,0.3097168197729887,0.2676338654182542,0.22421073654999768,0.1774487816549588,0.12510797294812992,0.07701574084381368,0.0257623881139728,0.0,0.028425949047219623,0.07640070980890235,0.1317204491996562,0.18735821767670258,0.24299598615374918,0.29863375463079556,0.35427152310784216,0.40969676359607643,0.45873139063384216,0.5105945267341996,0.5662031127632985,0.6218408812403433,0.6774786497173901,0.7329978304183591,0.7830196853402023,0.8338369520155733,0.889405254340395,0.9402107144081695,0.9380022884453982,0.9080685498663748,0.8717013966395122,0.8246911691808725,0.7781485647292326,0.7315869593871314,0.6780271526221471,0.629047372261317,0.5911819131226752,0.5649330803344328,0.5632998181456266,0.5837073768727199,0.6068596531385908,0.6137423434335445,0.5877200180827054,0.5485482853462489,0.5074421825898701,0.4714821229188073,0.4396680715222603,0.4078459652188109,0.38184008119843105,0.3703886676127537,0.3858212430979142,0.40848455306716347,0.4351617044970173,0.4506910563604156,0.4446455491076906,0.4374180850022147,0.4317419544428611,0.44591617973951636,0.45346960522727486,0.43476206901830916,0.4406122132250967,0.4468199186675661,0.4391106130078608,0.4130757440466233,0.3717430054285291,0.3293709640742346,0.27797889315510593,0.22277363362336877,0.17883989723982752,0.17548568894387162,0.21612095553974675,0.27042492879137203,0.3182586902872757,0.3716442060735372,0.4272751155346619,0.4823741763743701,0.5302600122226768,0.5835761050385637,0.6392068613712791,0.6948446298483257,0.7504793152872189,0.8044032125582294,0.8519723113983946,0.9067766874149519,0.9622873690602445,1.0,0.9789534728127931,0.9445174407489434,0.9013485220679005,0.8541477313082941,0.8078270391521176,0.7630786006274384,0.7165891217969111,0.6704768256689604,0.63239051675011,0.6056330610648064,0.6053812225819852,0.622190897410942,0.6277826568676583,0.6009002292115246,0.5651070890408543,0.527919598228469,0.4889960144143817,0.45378155012079224,0.4183807113356057,0.3783218360768701,0.35174028065068574,0.3462631544754087,0.36233139371908285,0.3947681579376945,0.42229742548006644,0.4302638653707005,0.42179895138677925,0.4046813296086371,0.39763662559611546,0.385003776688541,0.3856630046086402,0.3977433802253503,0.3904111350625121,0.368801279638566,0.3264106818181842,0.28350885209859245,0.23521255777561945,0.18611369685699808,0.13067989743217723,0.07607815919466421,0.04274252659127953,0.061186432292219095,0.10813846047214182,0.16345068579959565,0.2151915636452073,MI
0.930819974307671,0.9309053315823137,0.9394305487688599,0.9494007645232339,0.9632616251755008,0.9662305049334141,0.9831730177133937,1.0,0.9810080748837979,0.9607267161915627,0.9346025564207672,0.8999990556014446,0.8760687896119639,0.8365693626980581,0.7990416087618337,0.7707651118063628,0.7357559588838538,0.707808113074289,0.6788043942050477,0.6721561571666368,0.6571214717428409,0.6085957103438435,0.5538059434107501,0.4990013804992395,0.44419681758772844,0.38976887734845755,0.3571524745175432,0.35093333593907294,0.3508318612604713,0.3558398988804683,0.383378993277923,0.43695878925472886,0.49176304200149223,0.5465666123858117,0.5988544433989378,0.6277511883062177,0.662770412592872,0.6666578373959919,0.6540776684669187,0.6654878153409527,0.6860499947466718,0.7011650575511807,0.7152444476813757,0.7198703875392267,0.7198741095161956,0.7198741095161956,0.7198721244618125,0.716733476899222,0.7047282240622863,0.7182214515569267,0.7198738613843974,0.7198741095161956,0.7198741095161956,0.7198741095161956,0.7198741095161956,0.7198741095161956,0.7198741095161956,0.7198741095161956,0.7198741095161956,0.7198741095161956,0.7198741095161956,0.7198741095161956,0.7198741095161956,0.7198741095161956,0.7198747298456905,0.7214693426457535,0.741770088537292,0.7548767588700636,0.755021843324446,0.7493233893227607,0.7411783495622997,0.7518897766418071,0.7380334289361583,0.7236247761216563,0.7198817866536764,0.7198741095161956,0.7198741095161956,0.7198741095161956,0.7198741095161956,0.7198741095161956,0.7198741095161956,0.7198741095161956,0.7198741095161956,0.7198741095161956,0.7198741095161956,0.7186462770086663,0.7021369241584816,0.6655782147165108,0.6233972773913474,0.5734385624755265,0.5186510287286148,0.46762287883737486,0.4260660919168697,0.37181343261026134,0.3172173793380155,0.2740905911656246,0.22495929929385916,0.17017400303017416,0.11543057919020772,0.0695334349766683,0.024194825891546312,0.0,0.02188182998672117,0.06248855280475274,0.11330432098659715,0.1681059063165331,0.22291046922804414,0.27771503213955384,0.3325195950510649,0.38732415796257547,0.4420995203602498,0.4894077434728299,0.5342372399519886,0.5889635875426626,0.6437681504541737,0.6985727133656834,0.753377276277194,0.8081576056078741,0.8564604819083925,0.8972893555371408,0.9015449499399111,0.8956820118089301,0.8931589667528685,0.8792488560542013,0.8780838803074991,0.8780843145381447,0.8799608191399773,0.8900469143202354,0.8864709363453387,0.9093914715883109,0.9169887171997013,0.9302356199808743,0.9322074147020598,0.9519895945520678,0.9774951302554347,0.973131673767464,0.965850478695788,0.9550221973196438,0.9599828850850769,0.9340650451412684,0.8976319882758617,0.8618064936310552,0.8334819239845284,0.7994251135825432,0.7638489305128187,0.7422865051599841,0.7193917294887249,0.691326828897072,0.6849119309159701,0.6951352233163419,0.7038369196315819,0.7185133993169681,0.7344447206847029,0.7539118453515745,0.7435082898700527,0.7460514395147011,0.7479701630688895,0.7476884463994775,0.7543010063325273,0.7406482993385426,0.7374572974309626,0.7374529315821521,0.7374529315821521,0.7374529315821521,0.7374529315821521,0.7374529315821521,0.7374529315821521,0.7374529315821521,0.7374529315821521,0.7374529315821521,0.7362253472064202,0.7216529018000908,0.7198748539115893,0.7198867535866822,0.72445679390102,0.7363369933943846,0.723092055209082,0.7261259397039517,0.7376993700873276,0.7508317173444854,0.7582229031639338,0.7696274655559381,0.7562993423157569,0.7550321878787543,0.7542856140786602,0.7395171704573706,0.7225685007381362,0.7330269817920545,0.731741093411634,0.7236007681553325,0.736814317998741,0.7374506983959708,0.7340990487944903,0.720630494567597,0.7198742335820949,0.7198741095161956,0.7198741095161956,0.719873116989004,0.7175435164045596,0.6927417961720823,0.6427214580268656,0.5879295391858408,0.5339786418298145,0.49353625764944553,0.4410936799900731,0.3862901096057554,0.33151822535029885,0.28384166824612533,0.23927629106119364,0.18465068002566865,0.12992433243499413,0.08509855793280385,0.043537485666548914,0.03752370328793875,0.06894240231528137,0.1144022229164845,0.16913995467335408,0.2239445175848651,0.2787490804963757,0.33355364340788674,0.3880295030812628,0.4300009791585788,0.48039198392163174,0.5351930729879717,0.5899976358994827,0.6448021988109933,0.6996067617225044,0.7544113246340154,0.8091899983203596,0.8572180594667183,0.900697156508877,0.923835683658321,0.9066771510763392,0.8953289133746383,0.8821112658432528,0.8780928408916182,0.878083508109802,0.878083508109802,0.8785331709914552,0.891670743963366,0.8965179783688346,0.9101003335258921,0.9145067558549793,0.9285485073738,0.9365340974045471,0.9543481515862751,0.9551002037107179,0.9484090831920335,0.9422948567937617,0.9219253800306588,0.8868375972912301,0.85028065998628,0.816541552389809,0.7825635655328318,0.7473867527592422,MI
0.930819974307671,0.9309053315823137,0.9394305487688599,0.9494007645232339,0.9632616251755008,0.9662305049334141,0.9831730177133937,1.0,0.9810080748837979,0.9607267161915627,0.9346025564207672,0.8999990556014446,0.8760687896119639,0.8365693626980581,0.7990416087618337,0.7707651118063628,0.7357559588838538,0.707808113074289,0.6788043942050477,0.6721561571666368,0.6571214717428409,0.6085957103438435,0.5538059434107501,0.4990013804992395,0.44419681758772844,0.38976887734845755,0.3571524745175432,0.35093333593907294,0.3508318612604713,0.3558398988804683,0.383378993277923,0.43695878925472886,0.49176304200149223,0.5465666123858117,0.5988544433989378,0.6277511883062177,0.662770412592872,0.6666578373959919,0.6540776684669187,0.6654878153409527,0.6860499947466718,0.7011650575511807,0.7152444476813757,0.7198703875392267,0.7198741095161956,0.7198741095161956,0.7198721244618125,0.716733476899222,0.7047282240622863,0.7182214515569267,0.7198738613843974,0.7198741095161956,0.7198741095161956,0.7198741095161956,0.7198741095161956,0.7198741095161956,0.7198741095161956,0.7198741095161956,0.7198741095161956,0.7198741095161956,0.7198741095161956,0.7198741095161956,0.7198741095161956,0.7198741095161956,0.7198747298456905,0.7214693426457535,0.741770088537292,0.7548767588700636,0.755021843324446,0.7493233893227607,0.7411783495622997,0.7518897766418071,0.7380334289361583,0.7236247761216563,0.7198817866536764,0.7198741095161956,0.7198741095161956,0.7198741095161956,0.7198741095161956,0.7198741095161956,0.7198741095161956,0.7198741095161956,0.7198741095161956,0.7198741095161956,0.7198741095161956,0.7186462770086663,0.7021369241584816,0.6655782147165108,0.6233972773913474,0.5734385624755265,0.5186510287286148,0.46762287883737486,0.4260660919168697,0.37181343261026134,0.3172173793380155,0.2740905911656246,0.22495929929385916,0.17017400303017416,0.11543057919020772,0.0695334349766683,0.024194825891546312,0.0,0.02188182998672117,0.06248855280475274,0.11330432098659715,0.1681059063165331,0.22291046922804414,0.27771503213955384,0.3325195950510649,0.38732415796257547,0.4420995203602498,0.4894077434728299,0.5342372399519886,0.5889635875426626,0.6437681504541737,0.6985727133656834,0.753377276277194,0.8081576056078741,0.8564604819083925,0.8972893555371408,0.9015449499399111,0.8956820118089301,0.8931589667528685,0.8792488560542013,0.8780838803074991,0.8780843145381447,0.8799608191399773,0.8900469143202354,0.8864709363453387,0.9093914715883109,0.9169887171997013,0.9302356199808743,0.9322074147020598,0.9519895945520678,0.9774951302554347,0.973131673767464,0.965850478695788,0.9550221973196438,0.9599828850850769,0.9340650451412684,0.8976319882758617,0.8618064936310552,0.8334819239845284,0.7994251135825432,0.7638489305128187,0.7422865051599841,0.7193917294887249,0.691326828897072,0.6849119309159701,0.6951352233163419,0.7038369196315819,0.7185133993169681,0.7344447206847029,0.7539118453515745,0.7435082898700527,0.7460514395147011,0.7479701630688895,0.7476884463994775,0.7543010063325273,0.7406482993385426,0.7374572974309626,0.7374529315821521,0.7374529315821521,0.7374529315821521,0.7374529315821521,0.7374529315821521,0.7374529315821521,0.7374529315821521,0.7374529315821521,0.7374529315821521,0.7362253472064202,0.7216529018000908,0.7198748539115893,0.7198867535866822,0.72445679390102,0.7363369933943846,0.723092055209082,0.7261259397039517,0.7376993700873276,0.7508317173444854,0.7582229031639338,0.7696274655559381,0.7562993423157569,0.7550321878787543,0.7542856140786602,0.7395171704573706,0.7225685007381362,0.7330269817920545,0.731741093411634,0.7236007681553325,0.736814317998741,0.7374506983959708,0.7340990487944903,0.720630494567597,0.7198742335820949,0.7198741095161956,0.7198741095161956,0.719873116989004,0.7175435164045596,0.6927417961720823,0.6427214580268656,0.5879295391858408,0.5339786418298145,0.49353625764944553,0.4410936799900731,0.3862901096057554,0.33151822535029885,0.28384166824612533,0.23927629106119364,0.18465068002566865,0.12992433243499413,0.08509855793280385,0.043537485666548914,0.03752370328793875,0.06894240231528137,0.1144022229164845,0.16913995467335408,0.2239445175848651,0.2787490804963757,0.33355364340788674,0.3880295030812628,0.4300009791585788,0.48039198392163174,0.5351930729879717,0.5899976358994827,0.6448021988109933,0.6996067617225044,0.7544113246340154,0.8091899983203596,0.8572180594667183,0.900697156508877,0.923835683658321,0.9066771510763392,0.8953289133746383,0.8821112658432528,0.8780928408916182,0.878083508109802,0.878083508109802,0.8785331709914552,0.891670743963366,0.8965179783688346,0.9101003335258921,0.9145067558549793,0.9285485073738,0.9365340974045471,0.9543481515862751,0.9551002037107179,0.9484090831920335,0.9422948567937617,0.9219253800306588,0.8868375972912301,0.85028065998628,0.816541552389809,0.7825635655328318,0.7473867527592422,MI
0.2943883781175751,0.3030559277864646,0.34420360294555197,0.3925151707392567,0.40842286875429146,0.39597013956064875,0.352499470688044,0.3044872030266357,0.2650856307619067,0.23609614602282836,0.2299454805644805,0.2521253401579753,0.2954727606620784,0.2902129088584233,0.24501039308421602,0.19250902007038073,0.14896369110394247,0.14165753718358243,0.18255757436302278,0.2251468792252731,0.25119093130479864,0.2964476008519006,0.3518473867677754,0.4051373055396401,0.4530430687963749,0.5081499321817087,0.5637877006587555,0.6194254691358017,0.6750483658339275,0.7277172698306607,0.7760719353283729,0.8313570587912578,0.8869909309810953,0.9385027439891602,0.9358888287290421,0.9054726852073558,0.8656493871665081,0.8192004686476806,0.7727668766276854,0.726482779022984,0.6802847179259557,0.6347421369525785,0.5904717998037237,0.5611360260844689,0.56264927548452,0.5800012878054792,0.6005800150430143,0.5987480518400174,0.5692360541979002,0.5322769721518139,0.49385543178583946,0.4546564035270173,0.41990054486601935,0.38858211842934876,0.3700651284508991,0.3725354661786884,0.3876841742543813,0.4109065884223533,0.4281569319785805,0.42561886103071145,0.41093562686890306,0.3953828480015191,0.39270515575425513,0.3891760175788055,0.36538595643335414,0.36951290600562525,0.38292978093967056,0.37325572084760594,0.3534149167432188,0.316795530781228,0.27419275453252356,0.22851533103939992,0.1788618202565193,0.1291821283303609,0.0792790388516511,0.039122983574086945,0.04653497545662444,0.09861299782933286,0.14998753889658722,0.19945399438651812,0.25494811156760555,0.31058588004465215,0.3660300390479512,0.41524446112205027,0.4669123877118311,0.5225174697001078,0.5781552381771544,0.6337765287603387,0.6862388718741752,0.734768242306119,0.7900868278326101,0.84572160744835,0.8990777788692577,0.9163625722172348,0.8911715070925981,0.8538638188307908,0.8075890540280333,0.758339676032554,0.7046364965688767,0.6580086685769626,0.6125349672010989,0.5696034294847654,0.5371057587290211,0.5271609905493857,0.5399304515754157,0.5591929647305576,0.5614353437692117,0.529997261433695,0.48907540594912935,0.4519083108817499,0.4150080308793793,0.3806862810730858,0.34571283681137466,0.31733282544261243,0.305814553237554,0.3184012533749385,0.33954302850811646,0.36169777266749126,0.37504877316292395,0.3658139427115761,0.34963794736372567,0.34027458004562106,0.3195247788860749,0.3218781436250042,0.33440078805576245,0.33254610525745143,0.3097168197729887,0.2676338654182542,0.22421073654999768,0.1774487816549588,0.12510797294812992,0.07701574084381368,0.0257623881139728,0.0,0.028425949047219623,0.07640070980890235,0.1317204491996562,0.18735821767670258,0.24299598615374918,0.29863375463079556,0.35427152310784216,0.40969676359607643,0.45873139063384216,0.5105945267341996,0.5662031127632985,0.6218408812403433,0.6774786497173901,0.7329978304183591,0.7830196853402023,0.8338369520155733,0.889405254340395,0.9402107144081695,0.9380022884453982,0.9080685498663748,0.8717013966395122,0.8246911691808725,0.7781485647292326,0.7315869593871314,0.6780271526221471,0.629047372261317,0.5911819131226752,0.5649330803344328,0.5632998181456266,0.5837073768727199,0.6068596531385908,0.6137423434335445,0.5877200180827054,0.5485482853462489,0.5074421825898701,0.4714821229188073,0.4396680715222603,0.4078459652188109,0.38184008119843105,0.3703886676127537,0.3858212430979142,0.40848455306716347,0.4351617044970173,0.4506910563604156,0.4446455491076906,0.4374180850022147,0.4317419544428611,0.44591617973951636,0.45346960522727486,0.43476206901830916,0.4406122132250967,0.4468199186675661,0.4391106130078608,0.4130757440466233,0.3717430054285291,0.3293709640742346,0.27797889315510593,0.22277363362336877,0.17883989723982752,0.17548568894387162,0.21612095553974675,0.27042492879137203,0.3182586902872757,0.3716442060735372,0.4272751155346619,0.4823741763743701,0.5302600122226768,0.5835761050385637,0.6392068613712791,0.6948446298483257,0.7504793152872189,0.8044032125582294,0.8519723113983946,0.9067766874149519,0.9622873690602445,1.0,0.9789534728127931,0.9445174407489434,0.9013485220679005,0.8541477313082941,0.8078270391521176,0.7630786006274384,0.7165891217969111,0.6704768256689604,0.63239051675011,0.6056330610648064,0.6053812225819852,0.622190897410942,0.6277826568676583,0.6009002292115246,0.5651070890408543,0.527919598228469,0.4889960144143817,0.45378155012079224,0.4183807113356057,0.3783218360768701,0.35174028065068574,0.3462631544754087,0.36233139371908285,0.3947681579376945,0.42229742548006644,0.4302638653707005,0.42179895138677925,0.4046813296086371,0.39763662559611546,0.385003776688541,0.3856630046086402,0.3977433802253503,0.3904111350625121,0.368801279638566,0.3264106818181842,0.28350885209859245,0.23521255777561945,0.18611369685699808,0.13067989743217723,0.07607815919466421,0.04274252659127953,0.061186432292219095,0.10813846047214182,0.16345068579959565,0.2151915636452073,MI
0.8121827684658527,0.7870398789188613,0.7955940210873118,0.792262775902282,0.7893574197016031,0.8186378259731182,0.8447090224136007,0.8554740240781715,0.8626465198936355,0.8225436178688561,0.8121256477727323,0.7860099206011197,0.7803784879941631,0.7790330716495921,0.7458290049658789,0.6868934760558547,0.6195827303759911,0.5782910120340601,0.5061318346633152,0.4181114670181305,0.33000033561331854,0.24188920420850657,0.1537780728036937,0.06636035442953414,0.012885134504242224,0.0008986104929729066,0.0,0.002025299831297289,0.018379568935420032,0.08594864078897757,0.1739250464100044,0.26203617781481725,0.35014730921962833,0.4382584406244412,0.5261370531713219,0.5822799774657028,0.5849312147183001,0.5632707806332649,0.5283144380649674,0.4982110601156826,0.5616467678307657,0.5844348188095996,0.558368490856985,0.5587633183855454,0.5844359280319962,0.5672631239322046,0.5600641738433882,0.5891546671916652,0.6165063405332063,0.6172665342214776,0.5939105980758619,0.6007919742790158,0.6471612714830535,0.6264841333190612,0.6443433775832448,0.6526100538279556,0.6811335128412725,0.707386563303694,0.6880929664419506,0.7222779098166265,0.7717601988288294,0.8121709379008477,0.8128956858208483,0.822240172679237,0.8770970112807985,0.902452944247929,0.8621053169693287,0.8455430495925196,0.8436965559297906,0.7984762931839953,0.7804858534536327,0.7803680008005971,0.7734825058205708,0.7488337797682343,0.7355213657988129,0.7189244035060725,0.7457758410451945,0.7478587692074861,0.7456518972185107,0.7185420585273965,0.7238951635243671,0.763784720172862,0.7724062913148568,0.7486287404171614,0.7547873057167651,0.7776964596666094,0.7513391180732016,0.7480028746732739,0.7639067607846552,0.7793574005147779,0.7547492864769065,0.7724194715906707,0.7500426842253338,0.7501026380010778,0.7847050687131514,0.8094100825839536,0.7550854265316156,0.7164906384466718,0.7328301426800437,0.7612574634092004,0.7804102900176835,0.7990737621944337,0.7897894047138481,0.7917463699798164,0.7962458393907523,0.7801873132029771,0.7572888039388577,0.7197406748776931,0.7225980140480486,0.7470086064966672,0.7212177126658412,0.6626011338798845,0.5836675533564399,0.5530058932081534,0.562570264537932,0.6102249221889968,0.668314008754316,0.727135177164481,0.7963258703969895,0.7862577469734546,0.7427700457781716,0.7155599432337327,0.6867330612547118,0.6524909259916889,0.6503125453722118,0.6498257560319116,0.626914717935847,0.6295145982411468,0.659103613012924,0.6819829837840672,0.6607037764106618,0.6317418641566288,0.6194039689647095,0.6448079356766634,0.6495170836522357,0.6250933517748374,0.651825059780105,0.6950289063185755,0.696315507336859,0.6573931775728363,0.655003427466343,0.6927491176248477,0.7236649933408801,0.7698079684334065,0.8247177889537838,0.847236241125711,0.8809704078671086,0.9239789124674544,0.9225850946976468,0.8788553992642489,0.8234110250332591,0.811854541252294,0.7852604193780754,0.7870909833741226,0.810342218983716,0.7840703150516166,0.7803771266757673,0.7801155090962002,0.759528563726664,0.7473371627302274,0.7231723086350437,0.7191524286976323,0.756317485752878,0.7795300395361382,0.7571579347217137,0.7478713014774314,0.7478587692074861,0.7478587692074861,0.746392938380219,0.7136636669360152,0.6842905094441987,0.6976960060165149,0.7152707238508667,0.7104094477807861,0.6845376798380371,0.6828255836149104,0.6770807499843707,0.6587615027457963,0.6865456094415192,0.713183669933235,0.6727309550556964,0.6266465417039111,0.6210426751575238,0.6792583656328004,0.7148625102840516,0.7058991715208638,0.6856026453808086,0.7119215624663235,0.7126404366610863,0.6853556855144376,0.6828107603701596,0.669844249457098,0.648689113199854,0.6023048718836366,0.5447255112306841,0.521271719288289,0.5480186522733446,0.6053593542592912,0.6332002289861869,0.6316285898052838,0.6723235538322925,0.6530517342118118,0.6172837455730731,0.567495401878765,0.5260248164800547,0.508127641171022,0.48794358571805674,0.48195683300450654,0.45799284862597656,0.4819342378339364,0.49864657222931896,0.5215986475751517,0.5448061202822503,0.5226943494709486,0.5146724165826857,0.4905085338766675,0.5140372988568096,0.5012468491887461,0.5077690754928881,0.536064581291634,0.5527482907983048,0.5620870205006501,0.6024091223235866,0.6221703714523938,0.6740963249442249,0.7194231797373014,0.7531354103505734,0.8047703410718796,0.8428955396982012,0.8837101096775637,0.9233962935982296,0.9678223548201785,1.0,0.967050657392571,0.9425218724497126,0.9178685413296863,0.9440605834115621,0.9664980393433451,0.9378509545987948,0.8979984324794845,0.8933615309928422,0.934596249898128,0.942947334599646,0.9485883468545726,0.9746871818834073,0.9754685659623199,0.9754685659623199,0.9753029132283668,0.9561904472708598,0.9277608131332,0.9105979634071977,0.910437195460938,0.910437195460938,0.9064960448628394,0.8585964872940464,MI
0.24045654962055885,0.23007485019596796,0.23862453268349704,0.2905958511388942,0.359506550323772,0.44260834192573917,0.5001903625636217,0.5439092411593709,0.5892984899716343,0.6307031505185225,0.7114270402013618,0.773959151290061,0.8488838675510006,0.902510782392568,0.8592894937102828,0.816076858063667,0.7741178404697946,0.7382166319958365,0.7336544934220361,0.7336495359939121,0.7336495359939121,0.733647245431567,0.727633912023812,0.7044156311266621,0.6814357285844377,0.6888610787542335,0.7045402335233657,0.7284180473345074,0.7610204079763099,0.7882979442127125,0.8373830692996052,0.8660720605818231,0.9072517876893746,0.9412551346690146,0.9755108314458303,0.9997477083166659,1.0,0.9808483041009834,0.9698226435293931,0.9459588776643795,0.9278289004164453,0.9085557640920756,0.8840158603318873,0.8750081949820565,0.8528829233392363,0.838011946082089,0.8191877432548864,0.7949457634332235,0.7853011680247848,0.7629913827598909,0.740730098556182,0.755428571322807,0.7408233280845877,0.7630425972741568,0.7845526157274767,0.7698812725144561,0.7894893332216943,0.7929045643879684,0.7928946322359822,0.7856469591441826,0.7735741822355378,0.7925175149682904,0.7803348983407936,0.7634822033763635,0.7632772397970058,0.7632772397970058,0.7632767685793107,0.7589993458990287,0.7353818297695511,0.7242919685976421,0.6855379539200639,0.6746922071734778,0.6928441680547346,0.7041329905501295,0.7181090776717429,0.7336081876142462,0.7336495359939121,0.733617080242297,0.7204761255812135,0.7038282786928152,0.6730091166416727,0.5988322275959872,0.5375131070399508,0.4554714821798225,0.39368032332801217,0.3200338193626182,0.26135435593957723,0.18042368666342945,0.10277076977884736,0.08894964723988252,0.1318900169561399,0.21028541064625195,0.2937071812864218,0.3769073248570649,0.442579572369314,0.4954270339650053,0.5406746910055444,0.6219353155137295,0.7030563990678038,0.7474278530589586,0.8115315861909673,0.8380617186710833,0.774163156208366,0.7182223047267966,0.6738891916783727,0.6320856708688014,0.5935343337835342,0.5855207044277888,0.5855234236168023,0.5949087102176662,0.6141174167879324,0.5927001257724118,0.5855197859770671,0.5855110169784492,0.5855216688010465,0.5942390001608775,0.6333306547300044,0.6749749173487647,0.7038527580872183,0.7290410651912156,0.7704505836356708,0.812282326556983,0.8539850619316418,0.8947482187454652,0.9113730155107564,0.911376502815874,0.8964011921100186,0.8691346544334575,0.8495185657284505,0.8248510715244128,0.8225334258805308,0.8217773509420949,0.798995886386793,0.7813632313860817,0.763505869592576,0.7632084083998922,0.7464372257598315,0.733755531760016,0.733164443866511,0.7125461213180433,0.7075189659432777,0.7321983496799218,0.7336493681459206,0.7336495359939121,0.7336495359939121,0.7336495359939121,0.7336495359939121,0.7336495359939121,0.7336495359939121,0.7336291114449551,0.7237620074516089,0.7161000115380585,0.7326282490959315,0.709067314905564,0.7034946778797355,0.6795122655287464,0.6470398540802034,0.6447669275267582,0.6449939786431038,0.6627987499146766,0.6744940358258287,0.6881395346589736,0.7153763164889053,0.7166090436578498,0.7224033360936213,0.7107981507607644,0.7036799719802191,0.6739542553401936,0.593120436894325,0.5096989513646522,0.42685666120622834,0.36482370417666043,0.29837139647205024,0.23498481801999915,0.15184326935091175,0.07328407873775511,0.026036110264031187,0.0,0.037807980914863926,0.11488877631436356,0.18963444253502448,0.2525790439661799,0.3355345278319639,0.41895684677557554,0.5023791657191836,0.5858014846627952,0.6690403547690558,0.7365167180883718,0.8063766593897546,0.8651204256486649,0.8083168440830573,0.7525354201683951,0.7067058122450005,0.665390624415485,0.645011325025937,0.6447658169127379,0.639167979852858,0.6180506860918635,0.6403264354846465,0.6447659359604803,0.6447637852917776,0.6387146996657167,0.6244183553332299,0.6509563931229376,0.6789762708841156,0.7155322449364032,0.7363010325445352,0.7827478168562854,0.8206274170867953,0.8545726464980925,0.9056970590302091,0.937034554414633,0.968702201334386,0.9706414523223863,0.9582864773093043,0.9386067851720776,0.9057951568598188,0.882281863977294,0.881755119367309,0.8684754064843547,0.8519689017521603,0.8319951883531012,0.8215801272795913,0.7971379357354946,0.7882609240012357,0.7648800209995805,0.7629967450509172,0.743989125540665,0.7336932791923401,0.7355734390189568,0.7594392438578792,0.7603468054939446,0.7397750134213421,0.7620815153474565,0.7632418537063099,0.7493683419059094,0.7394164918338877,0.7419974311821722,0.7449727941830169,0.7460732012488451,0.7337512288116148,0.7336495359939121,0.7336495359939121,0.7336495549545186,0.7339173749992991,0.7479983081626793,0.7207657930242348,0.6824335317045866,0.6876579724876271,0.7067167972537547,0.730848206842416,0.7113822110892754,0.7296322315183472,0.7475266702938548,0.7442549844543995,MI
