0,1,2,3,4,5,6,7,8,9,10,11,12,13,14,15,16,17,18,19,20,21,22,23,24,25,26,27,28,29,30,31,32,33,34,35,36,37,38,39,40,41,42,43,44,45,46,47,48,49,50,51,52,53,54,55,56,57,58,59,60,61,62,63,64,65,66,67,68,69,70,71,72,73,74,75,76,77,78,79,80,81,82,83,84,85,86,87,88,89,90,91,92,93,94,95,96,97,98,99,100,101,102,103,104,105,106,107,108,109,110,111,112,113,114,115,116,117,118,119,120,121,122,123,124,125,126,127,128,129,130,131,132,133,134,135,136,137,138,139,140,141,142,143,144,145,146,147,148,149,150,151,152,153,154,155,156,157,158,159,160,161,162,163,164,165,166,167,168,169,170,171,172,173,174,175,176,177,178,179,180,181,182,183,184,185,186,187,188,189,190,191,192,193,194,195,196,197,198,199,200,201,202,203,204,205,206,207,208,209,210,211,212,213,214,215,216,217,218,219,220,221,222,223,224,225,226,227,228,229,230,231,232,233,234,235,236,237,238,239,240,241,242,243,244,245,246,247,248,249,250,251,252,253,254,Target
0.4272334637374988,0.3934872812707124,0.35804687462719187,0.322631009695991,0.2837901156239324,0.24406105236163977,0.20116277070552258,0.16753712569787105,0.13989859682633465,0.10549130358358916,0.07216296519469934,0.0400882648139671,0.01533567687997861,0.0029590289552117177,0.01528260862838815,0.03353099607779386,0.049189102547290364,0.0700348168168623,0.0835220590331418,0.10164635264889332,0.12382258661334378,0.14148497343494082,0.15642716467198214,0.17168100766658778,0.19011269372003703,0.2259155939048303,0.2617563483836176,0.2967532885219417,0.32598050774932785,0.361413964178396,0.4019820806325254,0.45378546226990846,0.4953984146936956,0.5446388961268731,0.595129098942285,0.6359244272038276,0.6880212261056009,0.7338726269753106,0.7785611077924841,0.8309434605242045,0.8722470870592285,0.9202790539294252,0.9576778151903946,0.9829922823150121,0.9738907090271356,0.9349289083169139,0.8904972273987211,0.8551884006713402,0.832354550387032,0.7987324329335572,0.7588056880753857,0.7228206464466624,0.680462646855474,0.6423418467201434,0.6232099211926725,0.610959851589501,0.6102755673809943,0.610350539479632,0.618397064111905,0.6349842432392139,0.6285244755382178,0.6153602844583181,0.6102670228282707,0.6050522430238559,0.5809956165949597,0.5558689212687531,0.5562326703881073,0.5691781159894411,0.5913342920799396,0.6079342111566581,0.6102725429891973,0.610275525184337,0.6102620804647225,0.6058737160757519,0.5949051472754312,0.5946249146923019,0.5946249146923019,0.5946249146923019,0.5946226175273273,0.5925991345783621,0.5820560191937361,0.593491822061877,0.5946247564548379,0.5946249146923019,0.5946249146923019,0.5946249146923019,0.5946249146923019,0.5946249146923019,0.5945987356658624,0.5889845594032561,0.5647204112318307,0.543740796980964,0.5189981985575143,0.48588593890805853,0.45819115446969594,0.4205268525728889,0.38026028435328785,0.3401942573593639,0.3059110918913146,0.26778712075657385,0.2323426512193758,0.19695523821643768,0.1619295010867705,0.13372639091159133,0.101587790326088,0.07300431845401478,0.046701366352913,0.03169044329225912,0.032908732873603075,0.052483861985753055,0.06257604136796235,0.07524331080268931,0.09285004865626023,0.10493624053720874,0.12429558569805366,0.1418372244795303,0.16361373784788835,0.1872932101806577,0.2120176783174328,0.24717675213348622,0.28255020500648653,0.32284481519453445,0.36572885858814486,0.41420459016657896,0.4562407736273091,0.5087670261391888,0.5521027081230123,0.5990640777438125,0.6374274286201795,0.6639686969318572,0.7114768856619982,0.764225093018958,0.8063531372143204,0.8548867303772938,0.9023681117436921,0.9453999482601709,0.9874744873864039,1.0,0.980244361844965,0.9362221423004544,0.8997123421038355,0.8609228956743422,0.8326840446831603,0.7939405586209256,0.7585941159950949,0.7220669219867468,0.6823042557055068,0.6430838005619113,0.6341896518032981,0.6415147108556205,0.6416710340388687,0.6500735965367705,0.6571751803085886,0.6572245325491863,0.6549887711501943,0.6387896284665455,0.6341923302997099,0.6268923773487494,0.6003453199798972,0.5675308332051445,0.5413695926586937,0.5478069291982024,0.5693528524605131,0.599734788718028,0.6141924852577381,0.6255363195433272,0.6255824042272233,0.6146558232891262,0.6102923001301077,0.6141281425695024,0.6246681718047529,0.6128846967186949,0.610277265284505,0.6126702338055918,0.619732648409471,0.6103254997932823,0.6014433756544437,0.5946570988205591,0.5946023152232498,0.5897540395341809,0.5888576895416193,0.5945557725633588,0.5889552123682575,0.5791285543045817,0.5789742015856691,0.5784375438384739,0.5623716143897375,0.5375186603302109,0.5164451598977906,0.4835254927361574,0.4560110731080407,0.4217350660451311,0.37684951994533344,0.33579155870443245,0.300334228065108,0.2632635718280807,0.2269055019865438,0.19410183782943724,0.1592682280112787,0.12873006038693768,0.09705533579222614,0.06319473147037646,0.032390858549359525,0.00562323785885388,0.0,0.008237695539472067,0.021192991585529786,0.042689027818971326,0.05719390819167369,0.07700093424542098,0.09403608638689143,0.11434542195340569,0.13909539489928502,0.15999359888178022,0.18267607743156766,0.20326949478965028,0.22976851765388417,0.2582638119271321,0.2796065552946194,0.32687587434211807,0.36740366854632045,0.4147905418512612,0.4569565338468484,0.5086260627960941,0.5490134287425907,0.5997469799862238,0.6379588943317671,0.672873652856989,0.7131973847567536,0.7652145165860671,0.8154091877027017,0.8563398299576224,0.9086451836595142,0.9581687244973898,0.9836235866523788,0.9806178443373601,0.9488921121632568,0.904359955886231,0.8651857343975324,0.8425410663782942,0.8129675387629631,0.777405766453052,0.7370150365496637,0.6928708928201974,0.6531045194028344,0.6417185960415974,0.6415772026595139,0.6431308871236681,0.6558032801842075,0.6572265876396806,0.6572075740373702,0.6524028119474092,0.6412174217162092,0.6277963895507632,0.6077668780145116,MI
0.4527199184186087,0.45877636625404195,0.4499748708243617,0.43100836265919995,0.420594693435305,0.42905682629502595,0.44363556620231803,0.4589256396268556,0.47006149188222046,0.4639274779161716,0.455066343126974,0.444803299582481,0.4160263177096638,0.3780350836425356,0.3366280612030018,0.297280366822659,0.25323000659985995,0.21485104598581872,0.17187757320676755,0.12726377764704322,0.0873770204320542,0.046470454240319925,0.012295405764858325,0.01754780249000565,0.05301402338388539,0.0928614486937126,0.13719729269033143,0.17610748826667078,0.21833947845517365,0.26287796867898094,0.3022257783765695,0.3439172261462212,0.3886176876820898,0.4333406853389353,0.4780636829957813,0.522786680652627,0.567509678309473,0.6122326759663185,0.65691380318193,0.6980179499774485,0.7379047071924375,0.7825240901212315,0.8272457642045005,0.8709797715087805,0.909055866020909,0.9527866448465471,0.9891334591384743,0.9723512751059905,0.9302653704768545,0.8920556369329483,0.8512397098855103,0.8116232671440656,0.7683857500857018,0.7302064588101204,0.6879200505196496,0.6505957192428459,0.6180383133434372,0.5997656748884129,0.5997520339608705,0.6131596066005413,0.6157353967482407,0.5949865263078816,0.5702747883202984,0.5460974419309782,0.5264508543228977,0.5095162938570686,0.4992861729470114,0.48578758302023906,0.46299045742082534,0.44010845585172353,0.4266517705331746,0.4190152730586779,0.4003934284342646,0.37554801815686145,0.35949921047611244,0.35704243834626614,0.3661935329107394,0.3859758543205146,0.39990966226575775,0.4159494753603691,0.43275133383751696,0.4376659742649186,0.4234634746910414,0.4103611623847997,0.4147898510616038,0.4278226825086785,0.44385157137862696,0.4555519493151211,0.45383304394446855,0.44345760490191244,0.4283471363796797,0.4036045114561452,0.3633885374240552,0.3251628881271734,0.28196789624283214,0.2382109011682222,0.20013480665609384,0.15640079935181406,0.11170166138952176,0.07001021361987048,0.030845772555477602,0.0,0.013624845666278529,0.05294922669902902,0.09143428387013663,0.1357602901691527,0.17976494323734638,0.21794885584760026,0.2613316636260853,0.30605215354637416,0.35077515120322034,0.3954981488600665,0.4402211465169118,0.48494238342454754,0.5285410678468706,0.5666056453396228,0.6105132064484032,0.6552342347550938,0.6989682420593742,0.7370443365715019,0.7808048051109094,0.8255269724835835,0.8702422688670867,0.912825565415578,0.9431887147810764,0.9784621833188137,1.0,0.9654158398454614,0.9272032412000971,0.8841110337596366,0.8442277500094441,0.8033051252014186,0.7639798648666055,0.7225691132353963,0.6838355944518196,0.6465390842359057,0.6119538033980824,0.5916278460296619,0.5991757466895514,0.6150924388185962,0.6295037904100887,0.6282405821987297,0.6070574475077338,0.5834640307710187,0.5619885754578077,0.5414730441612904,0.5317175039128818,0.5219610576147385,0.5029133227521095,0.47849568742751136,0.45064073450812836,0.4348462196150781,0.4265008823066506,0.4080911951140115,0.38248095833666607,0.36346880365256673,0.34936583234138985,0.3516428382537339,0.36650255542375254,0.3817875051796683,0.3967684393768277,0.39371508856637283,0.40017498251688866,0.4141982618912464,0.4301344346634993,0.449893766776052,0.45965063909906856,0.45578348658805423,0.44556658779402436,0.4352951492994622,0.40541271283064073,0.36450740804593373,0.32231728829866657,0.2834070927223268,0.23897331213138806,0.19619899818876785,0.15770633809343015,0.11341699577027942,0.07157226999267496,0.04469001294731756,0.061881721603256556,0.10238229110609087,0.14054366759536696,0.183924714624642,0.22752089131040842,0.26558546880316103,0.30948744254287164,0.35246026954534415,0.3908392301593856,0.435060685316183,0.4792007645369042,0.5174385861962217,0.5606327816671112,0.6053522147883427,0.649903909940147,0.6892517196377347,0.7309431674073869,0.775643628943255,0.8203666266001012,0.8649183217519055,0.9042661314494943,0.9459099585315468,0.9803059498546588,0.9614108003474634,0.9192258072461089,0.8811647032181534,0.8375660187958315,0.7928626524126824,0.7509009334336049,0.7121028443537322,0.6738094252034313,0.63773329096894,0.6130564218106828,0.607448561540758,0.6203959963231466,0.6365726751680444,0.6324270679587093,0.6080535274083055,0.579905063575939,0.54954013496767,0.5266820020533672,0.5098855554626814,0.4990478308908918,0.4905523682800189,0.4675169374532785,0.4420000658885318,0.42684061423707853,0.4299647489507482,0.42471032428963384,0.4021457456544376,0.3843922189906398,0.3693100097756997,0.37092771461063345,0.3853149337724254,0.40407710231455096,0.41419628908089023,0.40891319162834316,0.41523292984061577,0.4368046904711159,0.4543592577022316,0.47322416415393576,0.47712621553115253,0.4731432456546546,0.465283413837532,0.46008004757465637,0.42627375679396995,0.38191874849160723,0.3425516177155591,0.3008664425972062,0.25627242473409784,0.21638566751910837,0.17528152072359104,0.13060395804359393,0.08752471826357577,0.05991518396865114,MI
0.8144053463236649,0.8143794058946392,0.8083792340809326,0.7994409593682137,0.7992765904299397,0.7992765904299397,0.7992765904299397,0.7992765904299397,0.7992765904299397,0.7992765904299397,0.7992765904299397,0.7992765904299397,0.7992765904299397,0.7991254866022495,0.7891519830180178,0.7841663213308341,0.7841478345362145,0.7841478345362145,0.7841478345362145,0.7841478345362145,0.7841478345362145,0.7841478345362145,0.7841478345362145,0.7841478345362145,0.7834328010198071,0.7674601442882458,0.744736530195288,0.7387914013670784,0.7421902858936693,0.7619418712123804,0.768983244212776,0.7692874012607518,0.7817644485081574,0.7982546752626336,0.7871029040139368,0.761204672342936,0.7205680393595915,0.6845521721328225,0.6376642649994431,0.5992893808848925,0.5572830086595661,0.5116053114764385,0.47595004608344005,0.4293336217489301,0.38163393508139776,0.3339338576752995,0.2875011819681037,0.2522191641403324,0.2059617257046631,0.15826230394463248,0.11056222653853442,0.06368013244421977,0.028617808592984906,0.0,0.02126740020257656,0.05995178470557261,0.10098905000846448,0.14865109431803036,0.19635117172412841,0.2440512491302267,0.29175132653632496,0.33945094697698175,0.38597762483678166,0.421539578338473,0.4674234895542464,0.5151229576730898,0.5628230350791881,0.6105231124852863,0.6582231898913846,0.7059232672974824,0.7536233447035807,0.8013234221096786,0.8489690325790165,0.889583792782173,0.9293555738123189,0.9750283890668399,0.9720442013957677,0.9340367268663388,0.8938951418083529,0.8602428510993672,0.8324845691979521,0.8090557536632697,0.7921644493427842,0.7842435147235427,0.7841478345362145,0.7841361854415154,0.7789191339699444,0.7692263733701143,0.7664331798747621,0.7540236213230098,0.7404610420559494,0.7244932557922639,0.698892621155822,0.6737146822094016,0.6498564713154276,0.6265419740950018,0.6091171826883113,0.5859740488916756,0.5715271494469614,0.5587316409081022,0.5572285524753255,0.5613584544418575,0.5827648887373347,0.6079368170265769,0.6379010633882951,0.6624147005529382,0.700062910578793,0.7322066212074814,0.7559270234462259,0.7738207335425102,0.7945425242328084,0.799272325419156,0.7992765904299397,0.7992765904299397,0.7992765904299397,0.7992765904299397,0.7992765904299397,0.7992765904299397,0.7979725638124588,0.785571921547134,0.7818922024363866,0.7699773846704236,0.7690193766634292,0.7690190786424893,0.7690213402616546,0.7716497709527352,0.7835134847055583,0.7841478345362145,0.7841478345362145,0.7841478345362145,0.7841478345362145,0.7841473312119607,0.7824043088957928,0.7702288602348635,0.7690195620986804,0.7690190786424893,0.7690190786424893,0.7690190786424893,0.7690190786424893,0.7690190786424893,0.7690190786424893,0.7690190786424893,0.7690190786424893,0.7690190786424893,0.768825132293103,0.7534006845745485,0.7385498413810152,0.7272609840189308,0.7250700150092155,0.7430384874796838,0.7649451352015315,0.769021174604475,0.7721719313104776,0.7836176530754442,0.7806510819190497,0.7530920777701706,0.713327435595754,0.6782246715117133,0.6322364725001737,0.5845372494207706,0.5368371720146727,0.48913709460857446,0.44152122230221713,0.40300710298653875,0.3611412904262228,0.31346554087790746,0.2657654634718083,0.21867074113618856,0.18272096487279876,0.13779075201754698,0.09009425412089533,0.04405445678801345,0.017289497359825434,0.022607896260399274,0.05663216184327524,0.10397676809067802,0.15135792686887295,0.1878229385784933,0.2319513968145206,0.27964832182134347,0.3273483992274431,0.3750484766335409,0.42274855403963874,0.4704486314457361,0.5181487088518357,0.5658487862579336,0.6135332974009928,0.656672014699206,0.6940583506907252,0.741520339988601,0.789220417394698,0.8369204948007962,0.884620572206894,0.9323206496129937,0.979677047569598,0.9999999999999998,0.9698139769104046,0.9449402930772626,0.9134885379708646,0.8769423346450795,0.8450707187707527,0.8141290888830495,0.7996397318827186,0.7945999441012213,0.7843877611005292,0.7841478345362145,0.7841478345362145,0.7841445231924384,0.7804631882111337,0.7693193428632801,0.763716978207061,0.7430798130090166,0.7270016601531364,0.7087448803075536,0.6850044741161934,0.664282200892955,0.6437841304912342,0.6191035956908417,0.6067570630774732,0.5956081920481002,0.5876045086779971,0.5931434704199152,0.6160289375250414,0.6469392278229924,0.677948048326124,0.7052717422750974,0.7337457789981443,0.7576192247966806,0.781491415773049,0.8048968373905294,0.8215321587240398,0.8294864036806093,0.833579615589503,0.836820998613953,0.8399930771096178,0.8436840318055558,0.8311006533944465,0.8238154483823663,0.8145868874496751,0.8144053463236649,0.8143277372243813,0.8054962841737228,0.7993028653087768,0.7992765904299397,0.7992765904299397,0.7992765904299397,0.7992765904299397,0.7992727492711589,0.7952133376985,0.7844221054760021,0.7841478345362145,0.7841478345362145,0.7841478345362145,0.7841478345362145,0.7841478345362145,MI
0.335396965981821,0.27734526359851275,0.21595489188999384,0.16167533539972467,0.10051596276829278,0.04405898123565555,0.009128195896312752,0.04215362186870619,0.10356072037228636,0.15857439600848777,0.21833369917910717,0.28095606507864757,0.3435933986245656,0.4059051032584362,0.4553171609831639,0.47884627283204195,0.5214078138876128,0.5801206957788603,0.6427317754971509,0.7053691090430694,0.7680064425889876,0.8305574652258334,0.8880916335140305,0.944784546589154,0.9799751520028062,0.9403487870822491,0.8847810296186045,0.8327043607095452,0.7899068881722819,0.7568419837232179,0.7351966514766568,0.7158615489325342,0.6971361603522985,0.6736094047034433,0.6425054755198834,0.6074445466537397,0.5710233099411288,0.527004561529262,0.4835356100785888,0.43344635204384807,0.3897505794761065,0.3455070157107778,0.3090694370016709,0.2824695085743725,0.2985461093761095,0.34091815700051886,0.38840339974748606,0.43820730236696304,0.4864331918276694,0.5364594272851779,0.5846495544056554,0.627676947792009,0.6654554086135751,0.6807176645577295,0.6769164620743586,0.6705630636331139,0.6717912514276276,0.6823177305481325,0.6916248353603252,0.693759611547222,0.694267923095917,0.6677135792830124,0.6433873805068886,0.6227477170497326,0.6410528977429639,0.6773836087080749,0.7034770775785071,0.7307682217438616,0.7498609630298396,0.7567649879182785,0.7316708773972411,0.6793634442755108,0.6175636048119788,0.5604060908934805,0.5030544126541525,0.4405232304590092,0.38040180381840627,0.3320476504360299,0.2901227416263217,0.24629690136013815,0.19257235696131958,0.13380719307251754,0.07938478362975387,0.042251258524746316,0.06856663287066311,0.1264334482479872,0.18104780980936042,0.24306455535082194,0.305701678331356,0.36833825130192177,0.43009995298645265,0.4844598216174185,0.5453000144643434,0.6079332568605298,0.6705705904064485,0.733206490191928,0.7947090586330714,0.848961733670792,0.9101674069490919,0.9722185452104333,1.0000000000000002,0.9481751742813451,0.8890653667963668,0.8370023333715899,0.7944260684961042,0.7574472278598194,0.7377093607897793,0.7188729202911581,0.6971622095039707,0.6748272341033379,0.6467440673548936,0.6105888318076653,0.5743763007950029,0.5350740499773263,0.49371196825884334,0.447376104437023,0.4041735092421366,0.35803389544505526,0.31251662451877027,0.28168283489882473,0.2892741340682865,0.3248756773312542,0.36995445919174585,0.42605505815796607,0.47799557165090234,0.5281283820202372,0.577513265472184,0.6206385196582427,0.6583384264269951,0.6795401358905371,0.6808146547291829,0.6730655106617942,0.6713734493425976,0.6805138150772136,0.6928624818807605,0.704703577659308,0.7059067092920024,0.679866220003468,0.6453435392723548,0.6280486833653687,0.6418849668554027,0.6772685954877276,0.7097386757608519,0.7403285473721408,0.755062966567019,0.7517769412020976,0.7363338248175382,0.6859561265171934,0.6321536986251608,0.5711853061369794,0.5159445024985847,0.45647450804485534,0.3939109732708632,0.33572218097350914,0.2793661488148662,0.2173929570510662,0.16245112162268138,0.10324272291218928,0.04882919280183318,0.002010350490048829,0.020603430032984038,0.07977377258555673,0.13648884931624372,0.19428463768607007,0.2568548688377288,0.3194922023836462,0.3821282057360631,0.44367391414152424,0.497939807189794,0.5590892527094198,0.6217237809128204,0.6843611144587392,0.7469607570237338,0.8055565595473342,0.8615382569230914,0.9236519581714864,0.9596284512624604,0.9217186401582589,0.8794094056830988,0.8358186499081213,0.7921510315235678,0.7577863079861034,0.7378878448808839,0.7185458578614881,0.6998472642215365,0.6749694336532193,0.6457108411605892,0.6131278669587643,0.5772902125255102,0.5309139737017681,0.4858293844278412,0.44011910302597834,0.39900857155038927,0.3590048752154089,0.32551024094255676,0.3182051245216444,0.3499253860109037,0.39390746383161446,0.44388107206876204,0.4936746879571048,0.5410084951040706,0.5879843272364327,0.6338377938552724,0.676191323980843,0.6918595680866892,0.6889198539159669,0.681671620333675,0.6816975097477602,0.6890989836664478,0.6945682966438627,0.7029367008394756,0.7041309385281953,0.6829111129074732,0.6560787408283562,0.6314241386477832,0.6422520587966887,0.6733574137312999,0.693058446197409,0.7266350297403534,0.7385559681888674,0.7412935555219387,0.7044232287984582,0.6519305910332596,0.5925026084962177,0.5381628338784366,0.47731891140508087,0.4198167388062424,0.3628097639925567,0.30031354278461553,0.24137952141642538,0.1856844939270259,0.12364412946079262,0.06822283924917616,0.014374536092445434,0.0,0.0464821126867605,0.10073246035690553,0.1625127898463925,0.225145626717405,0.28607770974928437,0.34042353534821945,0.40210716718503114,0.4647437968409509,0.5273811303868692,0.5900184639327879,0.6526557974787066,0.7151609215361447,0.771884022940478,0.8296798113103019,0.8922249213848594,0.9446789713163433,0.9195506456849227,0.865996439311872,0.8121899831631036,0.7731626802436844,MI
0.6159901477807135,0.589906774921714,0.5747636785776677,0.5613672545922501,0.5494852061781883,0.5433094702957448,0.532881964694069,0.5315972267186002,0.5286492858845215,0.5353227609906464,0.5586034968985756,0.5874021745120721,0.6186377100917688,0.6515974913647178,0.6831560531881791,0.7154004552007374,0.7517394569218205,0.7858899692241204,0.8134321461514642,0.8374550688668787,0.8328350893301508,0.808522929391897,0.7793399034263406,0.7464661985608114,0.7162570828861305,0.6875700430066229,0.6637088876651207,0.6430014878820525,0.626125431900892,0.615503735672412,0.6090251526710475,0.5879443756493206,0.5603297720504066,0.5268259421032073,0.49239749783597214,0.45786891256132883,0.4198445205406571,0.3850311490466349,0.3481263218892087,0.310261573967571,0.27590370174396567,0.2384274332643747,0.20384055044916333,0.16665807269453486,0.13087578170058406,0.095096768117225,0.06573655835778724,0.08610949404878437,0.12432944267497004,0.1599782101862836,0.19580577725950105,0.23087674155787735,0.2674193663373133,0.3059319807062723,0.34435642045660625,0.37968370290258474,0.41599802445160045,0.45446546523256853,0.490634483807395,0.5260920770458466,0.5645369200610948,0.602497800438494,0.6368514033017565,0.6745752502213691,0.7131082848733465,0.7515246270806977,0.7867924542753844,0.8231720053188054,0.8616784209071087,0.8998213348156148,0.9343076973652642,0.9713225282311657,0.9987333451490636,0.9896895461208162,0.9575603826089736,0.9221171645165327,0.8859780926675258,0.8507339490057662,0.8158039628174203,0.779150151666341,0.7407706731941648,0.7060257778397838,0.6813744481617363,0.6744666104100929,0.6660542294716221,0.6595947900248116,0.6496794949062672,0.6330555292914706,0.6419050589048694,0.6485355227287417,0.6467372217049345,0.641340238889839,0.6364922917917735,0.6282072770921656,0.6172510640810751,0.6094175475708619,0.6210916837125515,0.6500517788401776,0.6813427368239597,0.7145451992519243,0.7449953818929806,0.7728109845146669,0.7942638505403372,0.7871934536329712,0.7604554268693062,0.7312241749452608,0.7017002269449268,0.6704702628402897,0.642333899802461,0.6150876943621837,0.5929124248330535,0.571442748609645,0.553720391313723,0.5368741331781546,0.5187604164592721,0.49770236637264836,0.4671610486477064,0.4339089125593463,0.4001030634894606,0.36311879941326036,0.32783398304094363,0.2914874551352125,0.25306899587093784,0.21761948439458229,0.18145440759594927,0.14457780443484725,0.10978678665781116,0.07364451994660748,0.038363400794081404,0.0017434860231323457,0.0,0.036187468908880416,0.07468996662486199,0.11041519074331979,0.1381112430950483,0.17147825023107316,0.20669911321459883,0.2442373990690267,0.27862580940078047,0.3165972413408798,0.3532738335908396,0.3882832572311599,0.42664503166462037,0.46406855032808964,0.4985416113120041,0.5366852262523181,0.5752200054527199,0.6134632760660224,0.6480845403336528,0.6852633590086232,0.7237906826810463,0.7622784394711173,0.7982656894876972,0.833895853403563,0.871040245421189,0.8946540645861887,0.8798161269675002,0.8435586844891811,0.8092290431763649,0.7724606931123508,0.7380462837746227,0.7029218154552539,0.6718672488456419,0.6678727905504447,0.6748409361292538,0.6693748413510041,0.6632519641043988,0.6531027941782612,0.6382434785035784,0.6468879104928338,0.6448071751031568,0.6314893472497052,0.6224444269721598,0.6040429309487052,0.5889149394574504,0.5737491793542848,0.5613781831122153,0.5459578997409076,0.5373651069411678,0.5536246947136847,0.5813058049319066,0.610696543121493,0.6419612652824411,0.6710792719958749,0.6956514462897319,0.6967962193995585,0.6753940539202012,0.6473998375846901,0.6205117928714576,0.5907304013913515,0.5626359881554246,0.5370463893096773,0.5165719545037308,0.5105431501987661,0.5120524870253622,0.500168717733944,0.4745743477422714,0.4415848356351629,0.4048108584007915,0.36636201295050647,0.33067813037337496,0.2947433049032408,0.2571537395061227,0.22276461486446958,0.18499597758648229,0.15085660187103966,0.12161963417436106,0.0890809102589229,0.055323825904440904,0.05774137187167727,0.09188305908866784,0.12767060456831797,0.16590879415673881,0.200690822503038,0.23724563256488412,0.27170896104596726,0.30896686545728286,0.34389545169282904,0.3806578465309966,0.4191534780544109,0.4555550493555344,0.4908008887004229,0.5292137687711231,0.5676986552506653,0.6036363320240856,0.6393202146012185,0.6777842823067848,0.716229978107449,0.7517133305880692,0.7878564247142699,0.8263531281390881,0.8637984566802921,0.8913510307055426,0.9253095119011479,0.9637599213871613,0.9981195505550098,1.0,0.9721287415159299,0.937748704749249,0.9027018004131087,0.867605288337455,0.8312878558817542,0.7960331917771231,0.7624161846239232,0.7340249856910883,0.7245723251681997,0.7121424095904032,0.6956447261542329,0.6789726572689474,0.6655054583856219,0.6433291545792377,0.6455694302955153,0.6578133453309112,0.6594186885880644,0.65372354758418,MI
0.8144053463236649,0.8143794058946392,0.8083792340809326,0.7994409593682137,0.7992765904299397,0.7992765904299397,0.7992765904299397,0.7992765904299397,0.7992765904299397,0.7992765904299397,0.7992765904299397,0.7992765904299397,0.7992765904299397,0.7991254866022495,0.7891519830180178,0.7841663213308341,0.7841478345362145,0.7841478345362145,0.7841478345362145,0.7841478345362145,0.7841478345362145,0.7841478345362145,0.7841478345362145,0.7841478345362145,0.7834328010198071,0.7674601442882458,0.744736530195288,0.7387914013670784,0.7421902858936693,0.7619418712123804,0.768983244212776,0.7692874012607518,0.7817644485081574,0.7982546752626336,0.7871029040139368,0.761204672342936,0.7205680393595915,0.6845521721328225,0.6376642649994431,0.5992893808848925,0.5572830086595661,0.5116053114764385,0.47595004608344005,0.4293336217489301,0.38163393508139776,0.3339338576752995,0.2875011819681037,0.2522191641403324,0.2059617257046631,0.15826230394463248,0.11056222653853442,0.06368013244421977,0.028617808592984906,0.0,0.02126740020257656,0.05995178470557261,0.10098905000846448,0.14865109431803036,0.19635117172412841,0.2440512491302267,0.29175132653632496,0.33945094697698175,0.38597762483678166,0.421539578338473,0.4674234895542464,0.5151229576730898,0.5628230350791881,0.6105231124852863,0.6582231898913846,0.7059232672974824,0.7536233447035807,0.8013234221096786,0.8489690325790165,0.889583792782173,0.9293555738123189,0.9750283890668399,0.9720442013957677,0.9340367268663388,0.8938951418083529,0.8602428510993672,0.8324845691979521,0.8090557536632697,0.7921644493427842,0.7842435147235427,0.7841478345362145,0.7841361854415154,0.7789191339699444,0.7692263733701143,0.7664331798747621,0.7540236213230098,0.7404610420559494,0.7244932557922639,0.698892621155822,0.6737146822094016,0.6498564713154276,0.6265419740950018,0.6091171826883113,0.5859740488916756,0.5715271494469614,0.5587316409081022,0.5572285524753255,0.5613584544418575,0.5827648887373347,0.6079368170265769,0.6379010633882951,0.6624147005529382,0.700062910578793,0.7322066212074814,0.7559270234462259,0.7738207335425102,0.7945425242328084,0.799272325419156,0.7992765904299397,0.7992765904299397,0.7992765904299397,0.7992765904299397,0.7992765904299397,0.7992765904299397,0.7979725638124588,0.785571921547134,0.7818922024363866,0.7699773846704236,0.7690193766634292,0.7690190786424893,0.7690213402616546,0.7716497709527352,0.7835134847055583,0.7841478345362145,0.7841478345362145,0.7841478345362145,0.7841478345362145,0.7841473312119607,0.7824043088957928,0.7702288602348635,0.7690195620986804,0.7690190786424893,0.7690190786424893,0.7690190786424893,0.7690190786424893,0.7690190786424893,0.7690190786424893,0.7690190786424893,0.7690190786424893,0.7690190786424893,0.768825132293103,0.7534006845745485,0.7385498413810152,0.7272609840189308,0.7250700150092155,0.7430384874796838,0.7649451352015315,0.769021174604475,0.7721719313104776,0.7836176530754442,0.7806510819190497,0.7530920777701706,0.713327435595754,0.6782246715117133,0.6322364725001737,0.5845372494207706,0.5368371720146727,0.48913709460857446,0.44152122230221713,0.40300710298653875,0.3611412904262228,0.31346554087790746,0.2657654634718083,0.21867074113618856,0.18272096487279876,0.13779075201754698,0.09009425412089533,0.04405445678801345,0.017289497359825434,0.022607896260399274,0.05663216184327524,0.10397676809067802,0.15135792686887295,0.1878229385784933,0.2319513968145206,0.27964832182134347,0.3273483992274431,0.3750484766335409,0.42274855403963874,0.4704486314457361,0.5181487088518357,0.5658487862579336,0.6135332974009928,0.656672014699206,0.6940583506907252,0.741520339988601,0.789220417394698,0.8369204948007962,0.884620572206894,0.9323206496129937,0.979677047569598,0.9999999999999998,0.9698139769104046,0.9449402930772626,0.9134885379708646,0.8769423346450795,0.8450707187707527,0.8141290888830495,0.7996397318827186,0.7945999441012213,0.7843877611005292,0.7841478345362145,0.7841478345362145,0.7841445231924384,0.7804631882111337,0.7693193428632801,0.763716978207061,0.7430798130090166,0.7270016601531364,0.7087448803075536,0.6850044741161934,0.664282200892955,0.6437841304912342,0.6191035956908417,0.6067570630774732,0.5956081920481002,0.5876045086779971,0.5931434704199152,0.6160289375250414,0.6469392278229924,0.677948048326124,0.7052717422750974,0.7337457789981443,0.7576192247966806,0.781491415773049,0.8048968373905294,0.8215321587240398,0.8294864036806093,0.833579615589503,0.836820998613953,0.8399930771096178,0.8436840318055558,0.8311006533944465,0.8238154483823663,0.8145868874496751,0.8144053463236649,0.8143277372243813,0.8054962841737228,0.7993028653087768,0.7992765904299397,0.7992765904299397,0.7992765904299397,0.7992765904299397,0.7992727492711589,0.7952133376985,0.7844221054760021,0.7841478345362145,0.7841478345362145,0.7841478345362145,0.7841478345362145,0.7841478345362145,MI
0.6159901477807135,0.589906774921714,0.5747636785776677,0.5613672545922501,0.5494852061781883,0.5433094702957448,0.532881964694069,0.5315972267186002,0.5286492858845215,0.5353227609906464,0.5586034968985756,0.5874021745120721,0.6186377100917688,0.6515974913647178,0.6831560531881791,0.7154004552007374,0.7517394569218205,0.7858899692241204,0.8134321461514642,0.8374550688668787,0.8328350893301508,0.808522929391897,0.7793399034263406,0.7464661985608114,0.7162570828861305,0.6875700430066229,0.6637088876651207,0.6430014878820525,0.626125431900892,0.615503735672412,0.6090251526710475,0.5879443756493206,0.5603297720504066,0.5268259421032073,0.49239749783597214,0.45786891256132883,0.4198445205406571,0.3850311490466349,0.3481263218892087,0.310261573967571,0.27590370174396567,0.2384274332643747,0.20384055044916333,0.16665807269453486,0.13087578170058406,0.095096768117225,0.06573655835778724,0.08610949404878437,0.12432944267497004,0.1599782101862836,0.19580577725950105,0.23087674155787735,0.2674193663373133,0.3059319807062723,0.34435642045660625,0.37968370290258474,0.41599802445160045,0.45446546523256853,0.490634483807395,0.5260920770458466,0.5645369200610948,0.602497800438494,0.6368514033017565,0.6745752502213691,0.7131082848733465,0.7515246270806977,0.7867924542753844,0.8231720053188054,0.8616784209071087,0.8998213348156148,0.9343076973652642,0.9713225282311657,0.9987333451490636,0.9896895461208162,0.9575603826089736,0.9221171645165327,0.8859780926675258,0.8507339490057662,0.8158039628174203,0.779150151666341,0.7407706731941648,0.7060257778397838,0.6813744481617363,0.6744666104100929,0.6660542294716221,0.6595947900248116,0.6496794949062672,0.6330555292914706,0.6419050589048694,0.6485355227287417,0.6467372217049345,0.641340238889839,0.6364922917917735,0.6282072770921656,0.6172510640810751,0.6094175475708619,0.6210916837125515,0.6500517788401776,0.6813427368239597,0.7145451992519243,0.7449953818929806,0.7728109845146669,0.7942638505403372,0.7871934536329712,0.7604554268693062,0.7312241749452608,0.7017002269449268,0.6704702628402897,0.642333899802461,0.6150876943621837,0.5929124248330535,0.571442748609645,0.553720391313723,0.5368741331781546,0.5187604164592721,0.49770236637264836,0.4671610486477064,0.4339089125593463,0.4001030634894606,0.36311879941326036,0.32783398304094363,0.2914874551352125,0.25306899587093784,0.21761948439458229,0.18145440759594927,0.14457780443484725,0.10978678665781116,0.07364451994660748,0.038363400794081404,0.0017434860231323457,0.0,0.036187468908880416,0.07468996662486199,0.11041519074331979,0.1381112430950483,0.17147825023107316,0.20669911321459883,0.2442373990690267,0.27862580940078047,0.3165972413408798,0.3532738335908396,0.3882832572311599,0.42664503166462037,0.46406855032808964,0.4985416113120041,0.5366852262523181,0.5752200054527199,0.6134632760660224,0.6480845403336528,0.6852633590086232,0.7237906826810463,0.7622784394711173,0.7982656894876972,0.833895853403563,0.871040245421189,0.8946540645861887,0.8798161269675002,0.8435586844891811,0.8092290431763649,0.7724606931123508,0.7380462837746227,0.7029218154552539,0.6718672488456419,0.6678727905504447,0.6748409361292538,0.6693748413510041,0.6632519641043988,0.6531027941782612,0.6382434785035784,0.6468879104928338,0.6448071751031568,0.6314893472497052,0.6224444269721598,0.6040429309487052,0.5889149394574504,0.5737491793542848,0.5613781831122153,0.5459578997409076,0.5373651069411678,0.5536246947136847,0.5813058049319066,0.610696543121493,0.6419612652824411,0.6710792719958749,0.6956514462897319,0.6967962193995585,0.6753940539202012,0.6473998375846901,0.6205117928714576,0.5907304013913515,0.5626359881554246,0.5370463893096773,0.5165719545037308,0.5105431501987661,0.5120524870253622,0.500168717733944,0.4745743477422714,0.4415848356351629,0.4048108584007915,0.36636201295050647,0.33067813037337496,0.2947433049032408,0.2571537395061227,0.22276461486446958,0.18499597758648229,0.15085660187103966,0.12161963417436106,0.0890809102589229,0.055323825904440904,0.05774137187167727,0.09188305908866784,0.12767060456831797,0.16590879415673881,0.200690822503038,0.23724563256488412,0.27170896104596726,0.30896686545728286,0.34389545169282904,0.3806578465309966,0.4191534780544109,0.4555550493555344,0.4908008887004229,0.5292137687711231,0.5676986552506653,0.6036363320240856,0.6393202146012185,0.6777842823067848,0.716229978107449,0.7517133305880692,0.7878564247142699,0.8263531281390881,0.8637984566802921,0.8913510307055426,0.9253095119011479,0.9637599213871613,0.9981195505550098,1.0,0.9721287415159299,0.937748704749249,0.9027018004131087,0.867605288337455,0.8312878558817542,0.7960331917771231,0.7624161846239232,0.7340249856910883,0.7245723251681997,0.7121424095904032,0.6956447261542329,0.6789726572689474,0.6655054583856219,0.6433291545792377,0.6455694302955153,0.6578133453309112,0.6594186885880644,0.65372354758418,MI
0.6166575947406696,0.6387403573098476,0.66404130652736,0.7016054031197452,0.7452397421472443,0.785599888205204,0.8239285714729623,0.8682679425552111,0.9104846976408605,0.9535559313362914,0.9397506227538948,0.9101298094757198,0.8663972582030914,0.8242465296436174,0.7756919480009365,0.7309971312413543,0.6855747186092664,0.6416320252867551,0.5990211347265266,0.5605954413400132,0.517119922488537,0.48114669203674376,0.4497027818820014,0.4386365850074041,0.4367987424192452,0.42607009626498815,0.3875582984263646,0.35635827880154713,0.3380615650349945,0.33023680496015384,0.35384835303845574,0.39195745850821706,0.3938812899476516,0.366640481453562,0.33444987133165727,0.307972188292583,0.2803108259087346,0.25009842094236845,0.22156351992048906,0.1962726999044162,0.1748725401252067,0.1743470461498542,0.1922406986596077,0.22119011488805862,0.252364299959454,0.29229989444835014,0.33319878215736987,0.3693996696579931,0.40628329266959606,0.44215541675382775,0.4737703063410552,0.5014100737636169,0.5140163449666486,0.5138990961627485,0.5088332856469897,0.5128036064170702,0.4980648001955632,0.4672069024348273,0.4398504531546741,0.43463688316175486,0.4577368025750188,0.485458412047276,0.5022210322983103,0.5211442114853109,0.539822600928141,0.5483131562337338,0.5406267954493207,0.5385276965083667,0.5515088472598595,0.5773195456927962,0.5977465316425332,0.6388796597576021,0.6817643980075223,0.7236929247168531,0.7643234647495682,0.8104779064022307,0.852493504769106,0.9011750649443249,0.9422337506560456,0.9492396378754484,0.902446692751226,0.8519873023736504,0.801524906919814,0.7510625114659772,0.7006186570418274,0.653651117526445,0.6102189447353832,0.5610048010630753,0.5189821011635392,0.4728118602584037,0.4308837904739695,0.38942997557334147,0.347864928096725,0.31161712281552134,0.2833622668830478,0.25809520038093003,0.23155645782752265,0.20680403130406178,0.1823997460969764,0.1555682544124617,0.12533935585454792,0.09293367845230582,0.060932499019565434,0.02942822720562477,0.007748969950819085,0.0,0.017562678830685075,0.04501784018764554,0.08603742654795932,0.12133633746767658,0.15707312157874664,0.19491754277378615,0.23275297059631517,0.2707748834732251,0.3111289268761259,0.35149216055037225,0.3889007188268363,0.42281630515399615,0.45176749201498434,0.4705558902309963,0.4797392538609775,0.47426541889306906,0.46206981565487415,0.43619412323843365,0.4141828585639489,0.4199054585977888,0.4497889086150173,0.4815379210443955,0.4967104969230358,0.5165510253056347,0.5319386926673713,0.5442924098801669,0.5491315673685226,0.5540006834648636,0.5521684836949412,0.575757033654253,0.5962397513628488,0.6281909398199894,0.6706801939672438,0.7139000863743983,0.7600443044025869,0.8022599796660637,0.8442169554676786,0.8917159476299568,0.9336830091409585,0.953870712395255,0.9104430396711347,0.8601306651260558,0.8158116018411135,0.7698365178321995,0.7221519368833365,0.6794463715229269,0.6348620769579947,0.5908468420741855,0.5491918734668946,0.507912221754703,0.47198237100886176,0.4434028793503808,0.4138181986286882,0.38530887529618885,0.3611096668365077,0.33559848893443456,0.3114966709276885,0.2814467044088258,0.24939016690104276,0.21877014856105892,0.1901421186832426,0.17171824084305332,0.16385089552342724,0.17717724967804926,0.2070942846517163,0.2407195548450145,0.2743588717389165,0.3082727271871246,0.3454318032346968,0.38324182029711307,0.41974333336635317,0.45631631105245574,0.49285731269201905,0.5279362028037644,0.5582439858014974,0.5729404179316098,0.5808400333998565,0.5740715408129407,0.5650893431828847,0.5401542745033192,0.513553507033685,0.5106729992054801,0.5389086879898684,0.5664756485103204,0.5789530586799079,0.594408342119946,0.6085157928863363,0.6093241299289132,0.6028833020611897,0.5959314740693242,0.6050312766644763,0.6334315695836923,0.6543690054971023,0.6946282261347552,0.7382141455188145,0.7838932702274435,0.8260068639394085,0.8748648616836365,0.9232473626530711,0.9655124163434281,1.0,0.9728711861556376,0.9302432947842756,0.8957929364676507,0.8540033758953705,0.8068723816186862,0.760224000887828,0.7165737071477865,0.6708831377211109,0.6273059288717711,0.5855264719292519,0.5434685456402342,0.5037977110524625,0.4702427974140442,0.4427416190590192,0.41754892202093297,0.394436482479414,0.3686846449099106,0.3423202544217092,0.31208264769320615,0.2790221285053449,0.2499254587553783,0.22467201609206944,0.2008254404498968,0.19302500557079272,0.20627288657667187,0.2353844133004317,0.26568923922790066,0.2966061322648088,0.33125550978634477,0.3674701877423501,0.40419782721149566,0.44223918596161615,0.4845159019986536,0.5198960480304524,0.549622172749763,0.5749780607381865,0.5974949838622041,0.5980714051067291,0.5910136855213264,0.570874956395262,0.5448035897143819,0.5222751862198223,0.5259500125156951,0.5556742047664249,0.5798937052157951,0.5943245166937421,0.6089085240934202,0.6209350337927646,MI
0.094501973549034,0.11598634511760442,0.13940048202043454,0.16430751457693893,0.19364263562843587,0.21752883383274935,0.2427462459974662,0.2669206818886155,0.28879025815184656,0.3135459119332452,0.33489433152581605,0.35644310729123696,0.37669019639584256,0.3995405769699424,0.419617255478434,0.4358954113790353,0.45259729162673723,0.4713923910018488,0.4890934271614752,0.5025483967811218,0.5155988994514394,0.5305759758640071,0.5581197356251234,0.5898763493448035,0.6245001592274485,0.6535978370901586,0.6873398171847721,0.7222063751239601,0.7518323888814459,0.7848420816093461,0.8195635901473203,0.8488015633572362,0.8823353012675358,0.9174505522068152,0.9521139491560585,0.9716545819635803,0.9609267513783358,0.9371939984950816,0.9090607955152631,0.8778067855188058,0.848200708861324,0.8152810784799863,0.7840895336642403,0.7528592096924832,0.7215996001294552,0.6923379879963735,0.6700472310827231,0.6447415802222304,0.6263882507990618,0.6180824463327429,0.609610398530921,0.5972027517919559,0.58366215194957,0.5710728373964337,0.5558895879131688,0.5405023131956973,0.5281045714127891,0.5298390978352295,0.5296139781570927,0.5249478391130561,0.5242281853997187,0.5181230612168225,0.5169843744836363,0.51847720734053,0.5253763554599767,0.5319887826337405,0.5327210583249408,0.5354292867383886,0.5423462658784058,0.5450266104118694,0.5491903375617994,0.5562180573412122,0.5603562128918097,0.5713769236319767,0.5790640208120653,0.5879034738409191,0.5997975883244021,0.6073312441716413,0.6113212764549824,0.6151957380039749,0.6238764959174216,0.6323448683697489,0.6349129624332316,0.6371836768196556,0.6482355015268345,0.6452042971211432,0.648638440736173,0.6494176271011841,0.6384256600258277,0.6267106549611264,0.6068197815327446,0.5854635760314654,0.5585396762325713,0.529650153547481,0.4963456394045648,0.4680674778128985,0.4396178135406691,0.40871824191453776,0.378131985766904,0.34798898290983715,0.3181142510071354,0.288940340676629,0.2601751096873187,0.2291316968933833,0.19907531345004958,0.1700548516815007,0.14219173384281325,0.11542988030663148,0.08985233766212675,0.08550421650478779,0.10310896588801033,0.1280357678604761,0.14952854834282336,0.17358401158736558,0.19810973515849817,0.21943437110283115,0.24478376094640042,0.27091050585333665,0.2954570946323657,0.318565023823013,0.33871536734877605,0.3568111262953487,0.3746311426354668,0.3930671150058721,0.41729694192252753,0.4379222797190797,0.4550479514683802,0.4721006082281475,0.4923496590099853,0.5100123109681386,0.5263196718753876,0.5512405032162339,0.581109014047806,0.6156357142278307,0.644826901516896,0.6784300534886337,0.7133419093192269,0.7431330865436211,0.7759324288738217,0.8109511800432151,0.8415825380412233,0.8734528015661954,0.9085119781809422,0.9401205765426485,0.9705008012080224,0.994929048299292,0.9999999999999999,0.9764117297930751,0.9463544958435773,0.9146605732351497,0.8853637344775293,0.8522675650086987,0.8228926128692103,0.7898563378940001,0.7604223256212282,0.727993161075608,0.7010711423170922,0.690607346715644,0.6965102153952679,0.6978085676462352,0.6953797698101948,0.6884248156622951,0.6773888037758115,0.6671837394316814,0.6729527421523881,0.6816873334962067,0.6799737925002148,0.6730328143289112,0.6668068348982225,0.6663702657222089,0.6663699071723662,0.6658514051853482,0.6580149976828128,0.6509676110365495,0.6506452225815554,0.6514574302643853,0.6569336786105663,0.6505495149378516,0.6396622451433606,0.6229643818654752,0.6021337678996922,0.5800590450736113,0.552317198338048,0.5258066252426258,0.4993744478888936,0.47118857767674915,0.441683189704554,0.41295007048472676,0.38388004247515906,0.3525408442326664,0.3232150474794838,0.28844008923445685,0.2544194489827404,0.22542247676140137,0.19316631765804748,0.16407184961308752,0.13537939862178372,0.1058651187929539,0.07491679739591273,0.04653360247090388,0.020274062409896154,0.0,7.400224340481376e-05,0.0198703485913998,0.04263463292701586,0.06499259872734964,0.08812736403615873,0.11364666147890667,0.1361802925065112,0.16046850217878117,0.18421650968555814,0.20615289574964646,0.23334473026406,0.25556544322878716,0.2778825353824924,0.2982206148793317,0.3157570971570428,0.3308317588565811,0.35223639270167995,0.3724207733872972,0.3887229956758066,0.40369476367125456,0.42118657191977216,0.4388628291345581,0.46312658990418687,0.49758574623172935,0.5327050272435249,0.5674579956128937,0.5967427339385448,0.6302070577874074,0.6652870069800015,0.6967859626124623,0.727757265518462,0.7628164075434986,0.7966851430887484,0.8257417007532025,0.8598789217483921,0.8887587158110631,0.9127593722751867,0.9113402428912879,0.8880671368553151,0.8682156498277517,0.8463568088579972,0.8151482439542178,0.785608456033959,0.7507625109205841,0.7157982370761896,0.6856655776746933,0.6537331609795228,0.6266319875523428,0.6124895744267248,0.6150142693217072,0.6191677243989825,0.6308416013671304,0.6376850701305848,MI
0.335396965981821,0.27734526359851275,0.21595489188999384,0.16167533539972467,0.10051596276829278,0.04405898123565555,0.009128195896312752,0.04215362186870619,0.10356072037228636,0.15857439600848777,0.21833369917910717,0.28095606507864757,0.3435933986245656,0.4059051032584362,0.4553171609831639,0.47884627283204195,0.5214078138876128,0.5801206957788603,0.6427317754971509,0.7053691090430694,0.7680064425889876,0.8305574652258334,0.8880916335140305,0.944784546589154,0.9799751520028062,0.9403487870822491,0.8847810296186045,0.8327043607095452,0.7899068881722819,0.7568419837232179,0.7351966514766568,0.7158615489325342,0.6971361603522985,0.6736094047034433,0.6425054755198834,0.6074445466537397,0.5710233099411288,0.527004561529262,0.4835356100785888,0.43344635204384807,0.3897505794761065,0.3455070157107778,0.3090694370016709,0.2824695085743725,0.2985461093761095,0.34091815700051886,0.38840339974748606,0.43820730236696304,0.4864331918276694,0.5364594272851779,0.5846495544056554,0.627676947792009,0.6654554086135751,0.6807176645577295,0.6769164620743586,0.6705630636331139,0.6717912514276276,0.6823177305481325,0.6916248353603252,0.693759611547222,0.694267923095917,0.6677135792830124,0.6433873805068886,0.6227477170497326,0.6410528977429639,0.6773836087080749,0.7034770775785071,0.7307682217438616,0.7498609630298396,0.7567649879182785,0.7316708773972411,0.6793634442755108,0.6175636048119788,0.5604060908934805,0.5030544126541525,0.4405232304590092,0.38040180381840627,0.3320476504360299,0.2901227416263217,0.24629690136013815,0.19257235696131958,0.13380719307251754,0.07938478362975387,0.042251258524746316,0.06856663287066311,0.1264334482479872,0.18104780980936042,0.24306455535082194,0.305701678331356,0.36833825130192177,0.43009995298645265,0.4844598216174185,0.5453000144643434,0.6079332568605298,0.6705705904064485,0.733206490191928,0.7947090586330714,0.848961733670792,0.9101674069490919,0.9722185452104333,1.0000000000000002,0.9481751742813451,0.8890653667963668,0.8370023333715899,0.7944260684961042,0.7574472278598194,0.7377093607897793,0.7188729202911581,0.6971622095039707,0.6748272341033379,0.6467440673548936,0.6105888318076653,0.5743763007950029,0.5350740499773263,0.49371196825884334,0.447376104437023,0.4041735092421366,0.35803389544505526,0.31251662451877027,0.28168283489882473,0.2892741340682865,0.3248756773312542,0.36995445919174585,0.42605505815796607,0.47799557165090234,0.5281283820202372,0.577513265472184,0.6206385196582427,0.6583384264269951,0.6795401358905371,0.6808146547291829,0.6730655106617942,0.6713734493425976,0.6805138150772136,0.6928624818807605,0.704703577659308,0.7059067092920024,0.679866220003468,0.6453435392723548,0.6280486833653687,0.6418849668554027,0.6772685954877276,0.7097386757608519,0.7403285473721408,0.755062966567019,0.7517769412020976,0.7363338248175382,0.6859561265171934,0.6321536986251608,0.5711853061369794,0.5159445024985847,0.45647450804485534,0.3939109732708632,0.33572218097350914,0.2793661488148662,0.2173929570510662,0.16245112162268138,0.10324272291218928,0.04882919280183318,0.002010350490048829,0.020603430032984038,0.07977377258555673,0.13648884931624372,0.19428463768607007,0.2568548688377288,0.3194922023836462,0.3821282057360631,0.44367391414152424,0.497939807189794,0.5590892527094198,0.6217237809128204,0.6843611144587392,0.7469607570237338,0.8055565595473342,0.8615382569230914,0.9236519581714864,0.9596284512624604,0.9217186401582589,0.8794094056830988,0.8358186499081213,0.7921510315235678,0.7577863079861034,0.7378878448808839,0.7185458578614881,0.6998472642215365,0.6749694336532193,0.6457108411605892,0.6131278669587643,0.5772902125255102,0.5309139737017681,0.4858293844278412,0.44011910302597834,0.39900857155038927,0.3590048752154089,0.32551024094255676,0.3182051245216444,0.3499253860109037,0.39390746383161446,0.44388107206876204,0.4936746879571048,0.5410084951040706,0.5879843272364327,0.6338377938552724,0.676191323980843,0.6918595680866892,0.6889198539159669,0.681671620333675,0.6816975097477602,0.6890989836664478,0.6945682966438627,0.7029367008394756,0.7041309385281953,0.6829111129074732,0.6560787408283562,0.6314241386477832,0.6422520587966887,0.6733574137312999,0.693058446197409,0.7266350297403534,0.7385559681888674,0.7412935555219387,0.7044232287984582,0.6519305910332596,0.5925026084962177,0.5381628338784366,0.47731891140508087,0.4198167388062424,0.3628097639925567,0.30031354278461553,0.24137952141642538,0.1856844939270259,0.12364412946079262,0.06822283924917616,0.014374536092445434,0.0,0.0464821126867605,0.10073246035690553,0.1625127898463925,0.225145626717405,0.28607770974928437,0.34042353534821945,0.40210716718503114,0.4647437968409509,0.5273811303868692,0.5900184639327879,0.6526557974787066,0.7151609215361447,0.771884022940478,0.8296798113103019,0.8922249213848594,0.9446789713163433,0.9195506456849227,0.865996439311872,0.8121899831631036,0.7731626802436844,MI
0.4527199184186087,0.45877636625404195,0.4499748708243617,0.43100836265919995,0.420594693435305,0.42905682629502595,0.44363556620231803,0.4589256396268556,0.47006149188222046,0.4639274779161716,0.455066343126974,0.444803299582481,0.4160263177096638,0.3780350836425356,0.3366280612030018,0.297280366822659,0.25323000659985995,0.21485104598581872,0.17187757320676755,0.12726377764704322,0.0873770204320542,0.046470454240319925,0.012295405764858325,0.01754780249000565,0.05301402338388539,0.0928614486937126,0.13719729269033143,0.17610748826667078,0.21833947845517365,0.26287796867898094,0.3022257783765695,0.3439172261462212,0.3886176876820898,0.4333406853389353,0.4780636829957813,0.522786680652627,0.567509678309473,0.6122326759663185,0.65691380318193,0.6980179499774485,0.7379047071924375,0.7825240901212315,0.8272457642045005,0.8709797715087805,0.909055866020909,0.9527866448465471,0.9891334591384743,0.9723512751059905,0.9302653704768545,0.8920556369329483,0.8512397098855103,0.8116232671440656,0.7683857500857018,0.7302064588101204,0.6879200505196496,0.6505957192428459,0.6180383133434372,0.5997656748884129,0.5997520339608705,0.6131596066005413,0.6157353967482407,0.5949865263078816,0.5702747883202984,0.5460974419309782,0.5264508543228977,0.5095162938570686,0.4992861729470114,0.48578758302023906,0.46299045742082534,0.44010845585172353,0.4266517705331746,0.4190152730586779,0.4003934284342646,0.37554801815686145,0.35949921047611244,0.35704243834626614,0.3661935329107394,0.3859758543205146,0.39990966226575775,0.4159494753603691,0.43275133383751696,0.4376659742649186,0.4234634746910414,0.4103611623847997,0.4147898510616038,0.4278226825086785,0.44385157137862696,0.4555519493151211,0.45383304394446855,0.44345760490191244,0.4283471363796797,0.4036045114561452,0.3633885374240552,0.3251628881271734,0.28196789624283214,0.2382109011682222,0.20013480665609384,0.15640079935181406,0.11170166138952176,0.07001021361987048,0.030845772555477602,0.0,0.013624845666278529,0.05294922669902902,0.09143428387013663,0.1357602901691527,0.17976494323734638,0.21794885584760026,0.2613316636260853,0.30605215354637416,0.35077515120322034,0.3954981488600665,0.4402211465169118,0.48494238342454754,0.5285410678468706,0.5666056453396228,0.6105132064484032,0.6552342347550938,0.6989682420593742,0.7370443365715019,0.7808048051109094,0.8255269724835835,0.8702422688670867,0.912825565415578,0.9431887147810764,0.9784621833188137,1.0,0.9654158398454614,0.9272032412000971,0.8841110337596366,0.8442277500094441,0.8033051252014186,0.7639798648666055,0.7225691132353963,0.6838355944518196,0.6465390842359057,0.6119538033980824,0.5916278460296619,0.5991757466895514,0.6150924388185962,0.6295037904100887,0.6282405821987297,0.6070574475077338,0.5834640307710187,0.5619885754578077,0.5414730441612904,0.5317175039128818,0.5219610576147385,0.5029133227521095,0.47849568742751136,0.45064073450812836,0.4348462196150781,0.4265008823066506,0.4080911951140115,0.38248095833666607,0.36346880365256673,0.34936583234138985,0.3516428382537339,0.36650255542375254,0.3817875051796683,0.3967684393768277,0.39371508856637283,0.40017498251688866,0.4141982618912464,0.4301344346634993,0.449893766776052,0.45965063909906856,0.45578348658805423,0.44556658779402436,0.4352951492994622,0.40541271283064073,0.36450740804593373,0.32231728829866657,0.2834070927223268,0.23897331213138806,0.19619899818876785,0.15770633809343015,0.11341699577027942,0.07157226999267496,0.04469001294731756,0.061881721603256556,0.10238229110609087,0.14054366759536696,0.183924714624642,0.22752089131040842,0.26558546880316103,0.30948744254287164,0.35246026954534415,0.3908392301593856,0.435060685316183,0.4792007645369042,0.5174385861962217,0.5606327816671112,0.6053522147883427,0.649903909940147,0.6892517196377347,0.7309431674073869,0.775643628943255,0.8203666266001012,0.8649183217519055,0.9042661314494943,0.9459099585315468,0.9803059498546588,0.9614108003474634,0.9192258072461089,0.8811647032181534,0.8375660187958315,0.7928626524126824,0.7509009334336049,0.7121028443537322,0.6738094252034313,0.63773329096894,0.6130564218106828,0.607448561540758,0.6203959963231466,0.6365726751680444,0.6324270679587093,0.6080535274083055,0.579905063575939,0.54954013496767,0.5266820020533672,0.5098855554626814,0.4990478308908918,0.4905523682800189,0.4675169374532785,0.4420000658885318,0.42684061423707853,0.4299647489507482,0.42471032428963384,0.4021457456544376,0.3843922189906398,0.3693100097756997,0.37092771461063345,0.3853149337724254,0.40407710231455096,0.41419628908089023,0.40891319162834316,0.41523292984061577,0.4368046904711159,0.4543592577022316,0.47322416415393576,0.47712621553115253,0.4731432456546546,0.465283413837532,0.46008004757465637,0.42627375679396995,0.38191874849160723,0.3425516177155591,0.3008664425972062,0.25627242473409784,0.21638566751910837,0.17528152072359104,0.13060395804359393,0.08752471826357577,0.05991518396865114,MI
0.094501973549034,0.11598634511760442,0.13940048202043454,0.16430751457693893,0.19364263562843587,0.21752883383274935,0.2427462459974662,0.2669206818886155,0.28879025815184656,0.3135459119332452,0.33489433152581605,0.35644310729123696,0.37669019639584256,0.3995405769699424,0.419617255478434,0.4358954113790353,0.45259729162673723,0.4713923910018488,0.4890934271614752,0.5025483967811218,0.5155988994514394,0.5305759758640071,0.5581197356251234,0.5898763493448035,0.6245001592274485,0.6535978370901586,0.6873398171847721,0.7222063751239601,0.7518323888814459,0.7848420816093461,0.8195635901473203,0.8488015633572362,0.8823353012675358,0.9174505522068152,0.9521139491560585,0.9716545819635803,0.9609267513783358,0.9371939984950816,0.9090607955152631,0.8778067855188058,0.848200708861324,0.8152810784799863,0.7840895336642403,0.7528592096924832,0.7215996001294552,0.6923379879963735,0.6700472310827231,0.6447415802222304,0.6263882507990618,0.6180824463327429,0.609610398530921,0.5972027517919559,0.58366215194957,0.5710728373964337,0.5558895879131688,0.5405023131956973,0.5281045714127891,0.5298390978352295,0.5296139781570927,0.5249478391130561,0.5242281853997187,0.5181230612168225,0.5169843744836363,0.51847720734053,0.5253763554599767,0.5319887826337405,0.5327210583249408,0.5354292867383886,0.5423462658784058,0.5450266104118694,0.5491903375617994,0.5562180573412122,0.5603562128918097,0.5713769236319767,0.5790640208120653,0.5879034738409191,0.5997975883244021,0.6073312441716413,0.6113212764549824,0.6151957380039749,0.6238764959174216,0.6323448683697489,0.6349129624332316,0.6371836768196556,0.6482355015268345,0.6452042971211432,0.648638440736173,0.6494176271011841,0.6384256600258277,0.6267106549611264,0.6068197815327446,0.5854635760314654,0.5585396762325713,0.529650153547481,0.4963456394045648,0.4680674778128985,0.4396178135406691,0.40871824191453776,0.378131985766904,0.34798898290983715,0.3181142510071354,0.288940340676629,0.2601751096873187,0.2291316968933833,0.19907531345004958,0.1700548516815007,0.14219173384281325,0.11542988030663148,0.08985233766212675,0.08550421650478779,0.10310896588801033,0.1280357678604761,0.14952854834282336,0.17358401158736558,0.19810973515849817,0.21943437110283115,0.24478376094640042,0.27091050585333665,0.2954570946323657,0.318565023823013,0.33871536734877605,0.3568111262953487,0.3746311426354668,0.3930671150058721,0.41729694192252753,0.4379222797190797,0.4550479514683802,0.4721006082281475,0.4923496590099853,0.5100123109681386,0.5263196718753876,0.5512405032162339,0.581109014047806,0.6156357142278307,0.644826901516896,0.6784300534886337,0.7133419093192269,0.7431330865436211,0.7759324288738217,0.8109511800432151,0.8415825380412233,0.8734528015661954,0.9085119781809422,0.9401205765426485,0.9705008012080224,0.994929048299292,0.9999999999999999,0.9764117297930751,0.9463544958435773,0.9146605732351497,0.8853637344775293,0.8522675650086987,0.8228926128692103,0.7898563378940001,0.7604223256212282,0.727993161075608,0.7010711423170922,0.690607346715644,0.6965102153952679,0.6978085676462352,0.6953797698101948,0.6884248156622951,0.6773888037758115,0.6671837394316814,0.6729527421523881,0.6816873334962067,0.6799737925002148,0.6730328143289112,0.6668068348982225,0.6663702657222089,0.6663699071723662,0.6658514051853482,0.6580149976828128,0.6509676110365495,0.6506452225815554,0.6514574302643853,0.6569336786105663,0.6505495149378516,0.6396622451433606,0.6229643818654752,0.6021337678996922,0.5800590450736113,0.552317198338048,0.5258066252426258,0.4993744478888936,0.47118857767674915,0.441683189704554,0.41295007048472676,0.38388004247515906,0.3525408442326664,0.3232150474794838,0.28844008923445685,0.2544194489827404,0.22542247676140137,0.19316631765804748,0.16407184961308752,0.13537939862178372,0.1058651187929539,0.07491679739591273,0.04653360247090388,0.020274062409896154,0.0,7.400224340481376e-05,0.0198703485913998,0.04263463292701586,0.06499259872734964,0.08812736403615873,0.11364666147890667,0.1361802925065112,0.16046850217878117,0.18421650968555814,0.20615289574964646,0.23334473026406,0.25556544322878716,0.2778825353824924,0.2982206148793317,0.3157570971570428,0.3308317588565811,0.35223639270167995,0.3724207733872972,0.3887229956758066,0.40369476367125456,0.42118657191977216,0.4388628291345581,0.46312658990418687,0.49758574623172935,0.5327050272435249,0.5674579956128937,0.5967427339385448,0.6302070577874074,0.6652870069800015,0.6967859626124623,0.727757265518462,0.7628164075434986,0.7966851430887484,0.8257417007532025,0.8598789217483921,0.8887587158110631,0.9127593722751867,0.9113402428912879,0.8880671368553151,0.8682156498277517,0.8463568088579972,0.8151482439542178,0.785608456033959,0.7507625109205841,0.7157982370761896,0.6856655776746933,0.6537331609795228,0.6266319875523428,0.6124895744267248,0.6150142693217072,0.6191677243989825,0.6308416013671304,0.6376850701305848,MI
0.9763723900262266,1.0,0.9947609605283357,0.959754897255756,0.9286612237015323,0.9060659154729779,0.8999116284818532,0.9060508850336259,0.9049681096573746,0.887101559360243,0.858440066998076,0.8276293170931016,0.8005238839104004,0.7723762117986953,0.7464739549466292,0.7429124014375378,0.760616408661903,0.7827147315608772,0.7864276303964463,0.7684952797209806,0.7480993767631833,0.7440481574294885,0.75065442159597,0.757607991833232,0.7647466275794174,0.7668674690140777,0.7315628338139101,0.682481059307796,0.6332181764934365,0.5844022771665748,0.5411595129452934,0.4938117891980941,0.44455716458770744,0.3954012459158541,0.3506845431673935,0.30510798362400904,0.25609335117759546,0.2120744461663907,0.1667691571330968,0.13529146681336002,0.14433827641508934,0.1880031352151651,0.23648884811032067,0.27936235019999855,0.32737509829918254,0.37663532143680045,0.42589840244305377,0.475138143028773,0.5216395831055839,0.5655121474392696,0.6145592281471463,0.6638223006896887,0.7130830641455613,0.7611897478856767,0.804092575114422,0.8520180664593394,0.8951658976260576,0.9362937950089406,0.9607581178624146,0.9858502899268274,0.9753420865620249,0.9401061841328807,0.908497973292898,0.8848602620454143,0.8803367498359035,0.8693276792411774,0.8599174921948395,0.8443968050580627,0.8213685616070271,0.7896059565102688,0.757638709733995,0.7257786618741303,0.6996552063450397,0.6830536602118601,0.6955559634498208,0.71903022590281,0.7222712457777979,0.6952732967168175,0.6664430264800859,0.6596030883093745,0.6698576040952208,0.6952442705830976,0.7195806820031346,0.735622178205115,0.7426748013197101,0.7130508896433109,0.6704070250507138,0.6217756650664444,0.5747760286306639,0.5394434114683074,0.4989403144592287,0.4498882190322121,0.4007858801676333,0.3564845471153316,0.3104555356567513,0.2612274222457984,0.21204904319997797,0.1671503075686268,0.12178606398062353,0.07556734090829609,0.043055861122093586,0.051835180676585435,0.09640122742202173,0.140555908434286,0.18671813616945832,0.2359541782826695,0.28521725928892294,0.33448034029517637,0.38374342130143,0.43300650230768334,0.4822695833139369,0.5315326643201902,0.5807957453264437,0.6300588263326973,0.6793124550560029,0.7265513058368432,0.7698701818024868,0.8187140121503108,0.8663508958834253,0.9086001957442035,0.9459636945823099,0.9585770750708685,0.9458482874197055,0.9079560619777055,0.8661322804402282,0.8315496896155742,0.8059747215084981,0.7995223999769222,0.8103008876321572,0.8066190151338771,0.7854993630423438,0.7593255387886738,0.7321883945782784,0.707482809489986,0.6828601790041057,0.6608739595965397,0.6583309211033973,0.6780663479486898,0.706789249316823,0.7220075541955441,0.6968305145084285,0.6669697269204892,0.6425834712268378,0.6392248714117214,0.6529141252248304,0.6739412530861287,0.6935908672642855,0.698900477871096,0.6769175801133268,0.6306225357368477,0.587010265016649,0.540204631845422,0.4909785013239808,0.44450965381379015,0.4005917150385109,0.3515594873107464,0.30229644368588227,0.2530423637742989,0.20580816155592374,0.16250564767753672,0.11365599390802661,0.06714640659189641,0.02434178534721676,0.0,0.025748902591041234,0.07017699163163471,0.11935867612389117,0.16729025723170132,0.21022423820150415,0.25876011589800874,0.3080224130212771,0.3572854940275305,0.40654857503378394,0.4558116560400375,0.5050747370462899,0.5542264875677215,0.5989265196886847,0.644525121127196,0.6937355542866713,0.7429986190708137,0.7921031755997571,0.8363741634111969,0.8817259870819837,0.9230141876800381,0.9528611077909305,0.9656029389268884,0.9391834052370128,0.9000003314855537,0.8646483607016703,0.8399652742894405,0.8315380221620966,0.8326099446768981,0.8366796900678303,0.8167591901565704,0.7909262499472084,0.7635848920161507,0.7316918988510165,0.7019191428191766,0.6713381121998413,0.6450529466273639,0.6407495214908409,0.6565637215778771,0.6745900117751825,0.6626727100386888,0.6571224680311535,0.6706781473366422,0.6874943308078306,0.7111379457951613,0.7351219318729528,0.7467478640234037,0.7353438751030393,0.6970079393373713,0.6516765200422682,0.6073937143939651,0.5582867469049803,0.5090238281198508,0.4601442133257575,0.4167576824762377,0.36961560766549506,0.32036286417514914,0.2710997831688968,0.22183670216264229,0.17257884220172182,0.12497233746864211,0.08232074075871754,0.049466305353705886,0.0644225608336273,0.10457424679821337,0.15273203854783013,0.2019932567072168,0.2512541061783198,0.29938580458019426,0.34228452430708867,0.39065521074594345,0.4399171549538504,0.48918023596010507,0.5384433169663575,0.5877063979726119,0.6368713436604531,0.6817650275491501,0.7271655430113729,0.7763660158606264,0.8247978902035947,0.8676352402680284,0.9133739298967655,0.9514944653094756,0.9748240554158086,0.9798789595856982,0.9470426077260551,0.912656826429404,0.8850908455724548,0.873694029689342,0.8703199709574835,0.8709567110824475,0.8869481494310293,MI
0.6166575947406696,0.6387403573098476,0.66404130652736,0.7016054031197452,0.7452397421472443,0.785599888205204,0.8239285714729623,0.8682679425552111,0.9104846976408605,0.9535559313362914,0.9397506227538948,0.9101298094757198,0.8663972582030914,0.8242465296436174,0.7756919480009365,0.7309971312413543,0.6855747186092664,0.6416320252867551,0.5990211347265266,0.5605954413400132,0.517119922488537,0.48114669203674376,0.4497027818820014,0.4386365850074041,0.4367987424192452,0.42607009626498815,0.3875582984263646,0.35635827880154713,0.3380615650349945,0.33023680496015384,0.35384835303845574,0.39195745850821706,0.3938812899476516,0.366640481453562,0.33444987133165727,0.307972188292583,0.2803108259087346,0.25009842094236845,0.22156351992048906,0.1962726999044162,0.1748725401252067,0.1743470461498542,0.1922406986596077,0.22119011488805862,0.252364299959454,0.29229989444835014,0.33319878215736987,0.3693996696579931,0.40628329266959606,0.44215541675382775,0.4737703063410552,0.5014100737636169,0.5140163449666486,0.5138990961627485,0.5088332856469897,0.5128036064170702,0.4980648001955632,0.4672069024348273,0.4398504531546741,0.43463688316175486,0.4577368025750188,0.485458412047276,0.5022210322983103,0.5211442114853109,0.539822600928141,0.5483131562337338,0.5406267954493207,0.5385276965083667,0.5515088472598595,0.5773195456927962,0.5977465316425332,0.6388796597576021,0.6817643980075223,0.7236929247168531,0.7643234647495682,0.8104779064022307,0.852493504769106,0.9011750649443249,0.9422337506560456,0.9492396378754484,0.902446692751226,0.8519873023736504,0.801524906919814,0.7510625114659772,0.7006186570418274,0.653651117526445,0.6102189447353832,0.5610048010630753,0.5189821011635392,0.4728118602584037,0.4308837904739695,0.38942997557334147,0.347864928096725,0.31161712281552134,0.2833622668830478,0.25809520038093003,0.23155645782752265,0.20680403130406178,0.1823997460969764,0.1555682544124617,0.12533935585454792,0.09293367845230582,0.060932499019565434,0.02942822720562477,0.007748969950819085,0.0,0.017562678830685075,0.04501784018764554,0.08603742654795932,0.12133633746767658,0.15707312157874664,0.19491754277378615,0.23275297059631517,0.2707748834732251,0.3111289268761259,0.35149216055037225,0.3889007188268363,0.42281630515399615,0.45176749201498434,0.4705558902309963,0.4797392538609775,0.47426541889306906,0.46206981565487415,0.43619412323843365,0.4141828585639489,0.4199054585977888,0.4497889086150173,0.4815379210443955,0.4967104969230358,0.5165510253056347,0.5319386926673713,0.5442924098801669,0.5491315673685226,0.5540006834648636,0.5521684836949412,0.575757033654253,0.5962397513628488,0.6281909398199894,0.6706801939672438,0.7139000863743983,0.7600443044025869,0.8022599796660637,0.8442169554676786,0.8917159476299568,0.9336830091409585,0.953870712395255,0.9104430396711347,0.8601306651260558,0.8158116018411135,0.7698365178321995,0.7221519368833365,0.6794463715229269,0.6348620769579947,0.5908468420741855,0.5491918734668946,0.507912221754703,0.47198237100886176,0.4434028793503808,0.4138181986286882,0.38530887529618885,0.3611096668365077,0.33559848893443456,0.3114966709276885,0.2814467044088258,0.24939016690104276,0.21877014856105892,0.1901421186832426,0.17171824084305332,0.16385089552342724,0.17717724967804926,0.2070942846517163,0.2407195548450145,0.2743588717389165,0.3082727271871246,0.3454318032346968,0.38324182029711307,0.41974333336635317,0.45631631105245574,0.49285731269201905,0.5279362028037644,0.5582439858014974,0.5729404179316098,0.5808400333998565,0.5740715408129407,0.5650893431828847,0.5401542745033192,0.513553507033685,0.5106729992054801,0.5389086879898684,0.5664756485103204,0.5789530586799079,0.594408342119946,0.6085157928863363,0.6093241299289132,0.6028833020611897,0.5959314740693242,0.6050312766644763,0.6334315695836923,0.6543690054971023,0.6946282261347552,0.7382141455188145,0.7838932702274435,0.8260068639394085,0.8748648616836365,0.9232473626530711,0.9655124163434281,1.0,0.9728711861556376,0.9302432947842756,0.8957929364676507,0.8540033758953705,0.8068723816186862,0.760224000887828,0.7165737071477865,0.6708831377211109,0.6273059288717711,0.5855264719292519,0.5434685456402342,0.5037977110524625,0.4702427974140442,0.4427416190590192,0.41754892202093297,0.394436482479414,0.3686846449099106,0.3423202544217092,0.31208264769320615,0.2790221285053449,0.2499254587553783,0.22467201609206944,0.2008254404498968,0.19302500557079272,0.20627288657667187,0.2353844133004317,0.26568923922790066,0.2966061322648088,0.33125550978634477,0.3674701877423501,0.40419782721149566,0.44223918596161615,0.4845159019986536,0.5198960480304524,0.549622172749763,0.5749780607381865,0.5974949838622041,0.5980714051067291,0.5910136855213264,0.570874956395262,0.5448035897143819,0.5222751862198223,0.5259500125156951,0.5556742047664249,0.5798937052157951,0.5943245166937421,0.6089085240934202,0.6209350337927646,MI
0.6159901477807135,0.589906774921714,0.5747636785776677,0.5613672545922501,0.5494852061781883,0.5433094702957448,0.532881964694069,0.5315972267186002,0.5286492858845215,0.5353227609906464,0.5586034968985756,0.5874021745120721,0.6186377100917688,0.6515974913647178,0.6831560531881791,0.7154004552007374,0.7517394569218205,0.7858899692241204,0.8134321461514642,0.8374550688668787,0.8328350893301508,0.808522929391897,0.7793399034263406,0.7464661985608114,0.7162570828861305,0.6875700430066229,0.6637088876651207,0.6430014878820525,0.626125431900892,0.615503735672412,0.6090251526710475,0.5879443756493206,0.5603297720504066,0.5268259421032073,0.49239749783597214,0.45786891256132883,0.4198445205406571,0.3850311490466349,0.3481263218892087,0.310261573967571,0.27590370174396567,0.2384274332643747,0.20384055044916333,0.16665807269453486,0.13087578170058406,0.095096768117225,0.06573655835778724,0.08610949404878437,0.12432944267497004,0.1599782101862836,0.19580577725950105,0.23087674155787735,0.2674193663373133,0.3059319807062723,0.34435642045660625,0.37968370290258474,0.41599802445160045,0.45446546523256853,0.490634483807395,0.5260920770458466,0.5645369200610948,0.602497800438494,0.6368514033017565,0.6745752502213691,0.7131082848733465,0.7515246270806977,0.7867924542753844,0.8231720053188054,0.8616784209071087,0.8998213348156148,0.9343076973652642,0.9713225282311657,0.9987333451490636,0.9896895461208162,0.9575603826089736,0.9221171645165327,0.8859780926675258,0.8507339490057662,0.8158039628174203,0.779150151666341,0.7407706731941648,0.7060257778397838,0.6813744481617363,0.6744666104100929,0.6660542294716221,0.6595947900248116,0.6496794949062672,0.6330555292914706,0.6419050589048694,0.6485355227287417,0.6467372217049345,0.641340238889839,0.6364922917917735,0.6282072770921656,0.6172510640810751,0.6094175475708619,0.6210916837125515,0.6500517788401776,0.6813427368239597,0.7145451992519243,0.7449953818929806,0.7728109845146669,0.7942638505403372,0.7871934536329712,0.7604554268693062,0.7312241749452608,0.7017002269449268,0.6704702628402897,0.642333899802461,0.6150876943621837,0.5929124248330535,0.571442748609645,0.553720391313723,0.5368741331781546,0.5187604164592721,0.49770236637264836,0.4671610486477064,0.4339089125593463,0.4001030634894606,0.36311879941326036,0.32783398304094363,0.2914874551352125,0.25306899587093784,0.21761948439458229,0.18145440759594927,0.14457780443484725,0.10978678665781116,0.07364451994660748,0.038363400794081404,0.0017434860231323457,0.0,0.036187468908880416,0.07468996662486199,0.11041519074331979,0.1381112430950483,0.17147825023107316,0.20669911321459883,0.2442373990690267,0.27862580940078047,0.3165972413408798,0.3532738335908396,0.3882832572311599,0.42664503166462037,0.46406855032808964,0.4985416113120041,0.5366852262523181,0.5752200054527199,0.6134632760660224,0.6480845403336528,0.6852633590086232,0.7237906826810463,0.7622784394711173,0.7982656894876972,0.833895853403563,0.871040245421189,0.8946540645861887,0.8798161269675002,0.8435586844891811,0.8092290431763649,0.7724606931123508,0.7380462837746227,0.7029218154552539,0.6718672488456419,0.6678727905504447,0.6748409361292538,0.6693748413510041,0.6632519641043988,0.6531027941782612,0.6382434785035784,0.6468879104928338,0.6448071751031568,0.6314893472497052,0.6224444269721598,0.6040429309487052,0.5889149394574504,0.5737491793542848,0.5613781831122153,0.5459578997409076,0.5373651069411678,0.5536246947136847,0.5813058049319066,0.610696543121493,0.6419612652824411,0.6710792719958749,0.6956514462897319,0.6967962193995585,0.6753940539202012,0.6473998375846901,0.6205117928714576,0.5907304013913515,0.5626359881554246,0.5370463893096773,0.5165719545037308,0.5105431501987661,0.5120524870253622,0.500168717733944,0.4745743477422714,0.4415848356351629,0.4048108584007915,0.36636201295050647,0.33067813037337496,0.2947433049032408,0.2571537395061227,0.22276461486446958,0.18499597758648229,0.15085660187103966,0.12161963417436106,0.0890809102589229,0.055323825904440904,0.05774137187167727,0.09188305908866784,0.12767060456831797,0.16590879415673881,0.200690822503038,0.23724563256488412,0.27170896104596726,0.30896686545728286,0.34389545169282904,0.3806578465309966,0.4191534780544109,0.4555550493555344,0.4908008887004229,0.5292137687711231,0.5676986552506653,0.6036363320240856,0.6393202146012185,0.6777842823067848,0.716229978107449,0.7517133305880692,0.7878564247142699,0.8263531281390881,0.8637984566802921,0.8913510307055426,0.9253095119011479,0.9637599213871613,0.9981195505550098,1.0,0.9721287415159299,0.937748704749249,0.9027018004131087,0.867605288337455,0.8312878558817542,0.7960331917771231,0.7624161846239232,0.7340249856910883,0.7245723251681997,0.7121424095904032,0.6956447261542329,0.6789726572689474,0.6655054583856219,0.6433291545792377,0.6455694302955153,0.6578133453309112,0.6594186885880644,0.65372354758418,MI
0.8144053463236649,0.8143794058946392,0.8083792340809326,0.7994409593682137,0.7992765904299397,0.7992765904299397,0.7992765904299397,0.7992765904299397,0.7992765904299397,0.7992765904299397,0.7992765904299397,0.7992765904299397,0.7992765904299397,0.7991254866022495,0.7891519830180178,0.7841663213308341,0.7841478345362145,0.7841478345362145,0.7841478345362145,0.7841478345362145,0.7841478345362145,0.7841478345362145,0.7841478345362145,0.7841478345362145,0.7834328010198071,0.7674601442882458,0.744736530195288,0.7387914013670784,0.7421902858936693,0.7619418712123804,0.768983244212776,0.7692874012607518,0.7817644485081574,0.7982546752626336,0.7871029040139368,0.761204672342936,0.7205680393595915,0.6845521721328225,0.6376642649994431,0.5992893808848925,0.5572830086595661,0.5116053114764385,0.47595004608344005,0.4293336217489301,0.38163393508139776,0.3339338576752995,0.2875011819681037,0.2522191641403324,0.2059617257046631,0.15826230394463248,0.11056222653853442,0.06368013244421977,0.028617808592984906,0.0,0.02126740020257656,0.05995178470557261,0.10098905000846448,0.14865109431803036,0.19635117172412841,0.2440512491302267,0.29175132653632496,0.33945094697698175,0.38597762483678166,0.421539578338473,0.4674234895542464,0.5151229576730898,0.5628230350791881,0.6105231124852863,0.6582231898913846,0.7059232672974824,0.7536233447035807,0.8013234221096786,0.8489690325790165,0.889583792782173,0.9293555738123189,0.9750283890668399,0.9720442013957677,0.9340367268663388,0.8938951418083529,0.8602428510993672,0.8324845691979521,0.8090557536632697,0.7921644493427842,0.7842435147235427,0.7841478345362145,0.7841361854415154,0.7789191339699444,0.7692263733701143,0.7664331798747621,0.7540236213230098,0.7404610420559494,0.7244932557922639,0.698892621155822,0.6737146822094016,0.6498564713154276,0.6265419740950018,0.6091171826883113,0.5859740488916756,0.5715271494469614,0.5587316409081022,0.5572285524753255,0.5613584544418575,0.5827648887373347,0.6079368170265769,0.6379010633882951,0.6624147005529382,0.700062910578793,0.7322066212074814,0.7559270234462259,0.7738207335425102,0.7945425242328084,0.799272325419156,0.7992765904299397,0.7992765904299397,0.7992765904299397,0.7992765904299397,0.7992765904299397,0.7992765904299397,0.7979725638124588,0.785571921547134,0.7818922024363866,0.7699773846704236,0.7690193766634292,0.7690190786424893,0.7690213402616546,0.7716497709527352,0.7835134847055583,0.7841478345362145,0.7841478345362145,0.7841478345362145,0.7841478345362145,0.7841473312119607,0.7824043088957928,0.7702288602348635,0.7690195620986804,0.7690190786424893,0.7690190786424893,0.7690190786424893,0.7690190786424893,0.7690190786424893,0.7690190786424893,0.7690190786424893,0.7690190786424893,0.7690190786424893,0.768825132293103,0.7534006845745485,0.7385498413810152,0.7272609840189308,0.7250700150092155,0.7430384874796838,0.7649451352015315,0.769021174604475,0.7721719313104776,0.7836176530754442,0.7806510819190497,0.7530920777701706,0.713327435595754,0.6782246715117133,0.6322364725001737,0.5845372494207706,0.5368371720146727,0.48913709460857446,0.44152122230221713,0.40300710298653875,0.3611412904262228,0.31346554087790746,0.2657654634718083,0.21867074113618856,0.18272096487279876,0.13779075201754698,0.09009425412089533,0.04405445678801345,0.017289497359825434,0.022607896260399274,0.05663216184327524,0.10397676809067802,0.15135792686887295,0.1878229385784933,0.2319513968145206,0.27964832182134347,0.3273483992274431,0.3750484766335409,0.42274855403963874,0.4704486314457361,0.5181487088518357,0.5658487862579336,0.6135332974009928,0.656672014699206,0.6940583506907252,0.741520339988601,0.789220417394698,0.8369204948007962,0.884620572206894,0.9323206496129937,0.979677047569598,0.9999999999999998,0.9698139769104046,0.9449402930772626,0.9134885379708646,0.8769423346450795,0.8450707187707527,0.8141290888830495,0.7996397318827186,0.7945999441012213,0.7843877611005292,0.7841478345362145,0.7841478345362145,0.7841445231924384,0.7804631882111337,0.7693193428632801,0.763716978207061,0.7430798130090166,0.7270016601531364,0.7087448803075536,0.6850044741161934,0.664282200892955,0.6437841304912342,0.6191035956908417,0.6067570630774732,0.5956081920481002,0.5876045086779971,0.5931434704199152,0.6160289375250414,0.6469392278229924,0.677948048326124,0.7052717422750974,0.7337457789981443,0.7576192247966806,0.781491415773049,0.8048968373905294,0.8215321587240398,0.8294864036806093,0.833579615589503,0.836820998613953,0.8399930771096178,0.8436840318055558,0.8311006533944465,0.8238154483823663,0.8145868874496751,0.8144053463236649,0.8143277372243813,0.8054962841737228,0.7993028653087768,0.7992765904299397,0.7992765904299397,0.7992765904299397,0.7992765904299397,0.7992727492711589,0.7952133376985,0.7844221054760021,0.7841478345362145,0.7841478345362145,0.7841478345362145,0.7841478345362145,0.7841478345362145,MI
0.44487608447888105,0.4347244142515827,0.4284443901897208,0.43492143587476617,0.4492473742134646,0.45729980678290416,0.4623389770516293,0.4503868538836575,0.42590179539456585,0.4000364789548043,0.3699487208846075,0.335515160557617,0.2994778765463233,0.2607082219540764,0.2211522095501426,0.18385072598265828,0.1473838760938666,0.11026987113780495,0.07520137053737641,0.041998950591513706,0.011604366583834236,0.011822310922003365,0.045778043032843385,0.07847983521453372,0.10986027050317837,0.13997535046399068,0.17052756552730308,0.20266417841467654,0.2306165559932496,0.2611356115986885,0.28818798822232283,0.3052651255678003,0.3215909851810528,0.34743674549900816,0.3828873631599823,0.4178619353624071,0.44741713112157044,0.4884379988527767,0.5305597437673437,0.5709336722581313,0.6156346401093353,0.6560215743021878,0.6981686532324121,0.7425590613705622,0.7817909689718896,0.8254878524212066,0.8678172130479618,0.9078863933573413,0.9467863061885673,0.9610859551953372,0.9320681296133912,0.8875901208725461,0.8425725193691578,0.7981352766246679,0.7588487754327613,0.7152025868377221,0.6706049785564414,0.6311182854906783,0.5878350037200701,0.5434525193502209,0.5042255346613529,0.4604735150532582,0.4176984264663839,0.41383043007734965,0.4473856176542499,0.4746917945649405,0.47683712995994965,0.45743375325354907,0.4405760770725202,0.4248831797178856,0.43068735489179755,0.44813487753461834,0.4566909893345543,0.4488027054473358,0.43312457510736957,0.4337587817552997,0.4460930524801636,0.458877388187759,0.4697525183735003,0.4666741802293164,0.45261956995319585,0.4295980734713698,0.4007341506611577,0.3662271837773461,0.3314625418619863,0.2954715723278607,0.2594422797322449,0.2233691796067392,0.18607060019435995,0.15017193834969644,0.11537627609486378,0.07952291250248844,0.04634740903331991,0.02913853483379525,0.05383238747867081,0.08655890154486334,0.11765809777714531,0.1509275185517276,0.1830543180795463,0.21509569135906847,0.24525127979533834,0.27369283965906566,0.30023338466139715,0.32336035100320193,0.34556591445558027,0.3632390278771873,0.3904398746719209,0.4270778542361968,0.4668099202524829,0.5079689388643596,0.548299180862851,0.590315940476341,0.6309895824322462,0.6727888564217817,0.7175767399750856,0.7576882491782841,0.8001381694963858,0.8443953028076312,0.8835942592225476,0.9263136939703931,0.9634781862028245,0.9721322794779699,0.9402882250559688,0.8986739435076336,0.8546626354379139,0.8154906952222238,0.7713506019622847,0.7270134147519922,0.6878477500965583,0.6440765299832747,0.6031342010775211,0.5615846644007225,0.5166379295705918,0.4740378494602129,0.43432538461947345,0.4099386037473116,0.4383139272217478,0.47422286598913166,0.49446581754083807,0.48530832538311164,0.4652497599905834,0.44726947339950107,0.43380690436071734,0.44695059307457163,0.4645029740085318,0.47037320343258227,0.4589777639731816,0.44798440115254956,0.4473053221468617,0.4566022503638216,0.46885585336849833,0.4798678409040751,0.47689366302577163,0.46221976227799644,0.43436547677353565,0.4016151927071523,0.36922522726323415,0.33360581632454833,0.29812059261108037,0.2630670741713883,0.22607132709211153,0.19078946081512083,0.15489795724200595,0.11742821126809666,0.08038177720218953,0.04830207964424038,0.03929076263935294,0.06457318706837478,0.09656190412330168,0.12781441689509432,0.1583450309703458,0.19399201183299275,0.2262390586839529,0.2549456955713545,0.2817269824578996,0.30441921432340346,0.3271651442673176,0.34445576694645275,0.36864149349340747,0.4005383707804273,0.43763288156768865,0.47836840440061423,0.5186082269305343,0.5536917928536778,0.5875102097277298,0.6308738882903204,0.6751534117339799,0.7143564628489867,0.7582367610558611,0.8032526775173545,0.8482709492413181,0.8931197052960531,0.9334081291987912,0.9740806127873098,1.0,0.984220202474531,0.9430325008710541,0.9038034068122536,0.8593686998468864,0.8153978277418374,0.7786409946314368,0.7457958946898857,0.7023621472465775,0.658656759573639,0.6194230484419174,0.5749947428199769,0.5301937617415118,0.4901020058896075,0.4476117683522778,0.4036851496578173,0.3876842756243497,0.42314313132839265,0.4550621354722073,0.46998686424034264,0.4578569020349956,0.43846621544571973,0.4191758478532739,0.4034019293261779,0.4132452238264168,0.43185175586938884,0.4327736618621716,0.42586108491157826,0.4100710529295659,0.4106877193918814,0.4213056800398094,0.4356587886062211,0.4415997566298002,0.42963578226214594,0.4089957712271248,0.3841698407057552,0.3525053323519265,0.31901038793118386,0.2871375693337228,0.24963234103051568,0.22531246958297912,0.19039841833199977,0.1754382344556531,0.1484875988150789,0.1092004254817287,0.07371279069788828,0.03990094485212525,0.008874374826913,0.0,0.028015917710262572,0.06080775978855335,0.09592868976206148,0.13211163118145564,0.16628466210887738,0.2036869746889518,0.23657869060613224,0.2634515233227144,0.2825640351840195,0.28469565946802544,0.25606218248587975,0.2265977858211643,MI
0.6166575947406696,0.6387403573098476,0.66404130652736,0.7016054031197452,0.7452397421472443,0.785599888205204,0.8239285714729623,0.8682679425552111,0.9104846976408605,0.9535559313362914,0.9397506227538948,0.9101298094757198,0.8663972582030914,0.8242465296436174,0.7756919480009365,0.7309971312413543,0.6855747186092664,0.6416320252867551,0.5990211347265266,0.5605954413400132,0.517119922488537,0.48114669203674376,0.4497027818820014,0.4386365850074041,0.4367987424192452,0.42607009626498815,0.3875582984263646,0.35635827880154713,0.3380615650349945,0.33023680496015384,0.35384835303845574,0.39195745850821706,0.3938812899476516,0.366640481453562,0.33444987133165727,0.307972188292583,0.2803108259087346,0.25009842094236845,0.22156351992048906,0.1962726999044162,0.1748725401252067,0.1743470461498542,0.1922406986596077,0.22119011488805862,0.252364299959454,0.29229989444835014,0.33319878215736987,0.3693996696579931,0.40628329266959606,0.44215541675382775,0.4737703063410552,0.5014100737636169,0.5140163449666486,0.5138990961627485,0.5088332856469897,0.5128036064170702,0.4980648001955632,0.4672069024348273,0.4398504531546741,0.43463688316175486,0.4577368025750188,0.485458412047276,0.5022210322983103,0.5211442114853109,0.539822600928141,0.5483131562337338,0.5406267954493207,0.5385276965083667,0.5515088472598595,0.5773195456927962,0.5977465316425332,0.6388796597576021,0.6817643980075223,0.7236929247168531,0.7643234647495682,0.8104779064022307,0.852493504769106,0.9011750649443249,0.9422337506560456,0.9492396378754484,0.902446692751226,0.8519873023736504,0.801524906919814,0.7510625114659772,0.7006186570418274,0.653651117526445,0.6102189447353832,0.5610048010630753,0.5189821011635392,0.4728118602584037,0.4308837904739695,0.38942997557334147,0.347864928096725,0.31161712281552134,0.2833622668830478,0.25809520038093003,0.23155645782752265,0.20680403130406178,0.1823997460969764,0.1555682544124617,0.12533935585454792,0.09293367845230582,0.060932499019565434,0.02942822720562477,0.007748969950819085,0.0,0.017562678830685075,0.04501784018764554,0.08603742654795932,0.12133633746767658,0.15707312157874664,0.19491754277378615,0.23275297059631517,0.2707748834732251,0.3111289268761259,0.35149216055037225,0.3889007188268363,0.42281630515399615,0.45176749201498434,0.4705558902309963,0.4797392538609775,0.47426541889306906,0.46206981565487415,0.43619412323843365,0.4141828585639489,0.4199054585977888,0.4497889086150173,0.4815379210443955,0.4967104969230358,0.5165510253056347,0.5319386926673713,0.5442924098801669,0.5491315673685226,0.5540006834648636,0.5521684836949412,0.575757033654253,0.5962397513628488,0.6281909398199894,0.6706801939672438,0.7139000863743983,0.7600443044025869,0.8022599796660637,0.8442169554676786,0.8917159476299568,0.9336830091409585,0.953870712395255,0.9104430396711347,0.8601306651260558,0.8158116018411135,0.7698365178321995,0.7221519368833365,0.6794463715229269,0.6348620769579947,0.5908468420741855,0.5491918734668946,0.507912221754703,0.47198237100886176,0.4434028793503808,0.4138181986286882,0.38530887529618885,0.3611096668365077,0.33559848893443456,0.3114966709276885,0.2814467044088258,0.24939016690104276,0.21877014856105892,0.1901421186832426,0.17171824084305332,0.16385089552342724,0.17717724967804926,0.2070942846517163,0.2407195548450145,0.2743588717389165,0.3082727271871246,0.3454318032346968,0.38324182029711307,0.41974333336635317,0.45631631105245574,0.49285731269201905,0.5279362028037644,0.5582439858014974,0.5729404179316098,0.5808400333998565,0.5740715408129407,0.5650893431828847,0.5401542745033192,0.513553507033685,0.5106729992054801,0.5389086879898684,0.5664756485103204,0.5789530586799079,0.594408342119946,0.6085157928863363,0.6093241299289132,0.6028833020611897,0.5959314740693242,0.6050312766644763,0.6334315695836923,0.6543690054971023,0.6946282261347552,0.7382141455188145,0.7838932702274435,0.8260068639394085,0.8748648616836365,0.9232473626530711,0.9655124163434281,1.0,0.9728711861556376,0.9302432947842756,0.8957929364676507,0.8540033758953705,0.8068723816186862,0.760224000887828,0.7165737071477865,0.6708831377211109,0.6273059288717711,0.5855264719292519,0.5434685456402342,0.5037977110524625,0.4702427974140442,0.4427416190590192,0.41754892202093297,0.394436482479414,0.3686846449099106,0.3423202544217092,0.31208264769320615,0.2790221285053449,0.2499254587553783,0.22467201609206944,0.2008254404498968,0.19302500557079272,0.20627288657667187,0.2353844133004317,0.26568923922790066,0.2966061322648088,0.33125550978634477,0.3674701877423501,0.40419782721149566,0.44223918596161615,0.4845159019986536,0.5198960480304524,0.549622172749763,0.5749780607381865,0.5974949838622041,0.5980714051067291,0.5910136855213264,0.570874956395262,0.5448035897143819,0.5222751862198223,0.5259500125156951,0.5556742047664249,0.5798937052157951,0.5943245166937421,0.6089085240934202,0.6209350337927646,MI
0.9763723900262266,1.0,0.9947609605283357,0.959754897255756,0.9286612237015323,0.9060659154729779,0.8999116284818532,0.9060508850336259,0.9049681096573746,0.887101559360243,0.858440066998076,0.8276293170931016,0.8005238839104004,0.7723762117986953,0.7464739549466292,0.7429124014375378,0.760616408661903,0.7827147315608772,0.7864276303964463,0.7684952797209806,0.7480993767631833,0.7440481574294885,0.75065442159597,0.757607991833232,0.7647466275794174,0.7668674690140777,0.7315628338139101,0.682481059307796,0.6332181764934365,0.5844022771665748,0.5411595129452934,0.4938117891980941,0.44455716458770744,0.3954012459158541,0.3506845431673935,0.30510798362400904,0.25609335117759546,0.2120744461663907,0.1667691571330968,0.13529146681336002,0.14433827641508934,0.1880031352151651,0.23648884811032067,0.27936235019999855,0.32737509829918254,0.37663532143680045,0.42589840244305377,0.475138143028773,0.5216395831055839,0.5655121474392696,0.6145592281471463,0.6638223006896887,0.7130830641455613,0.7611897478856767,0.804092575114422,0.8520180664593394,0.8951658976260576,0.9362937950089406,0.9607581178624146,0.9858502899268274,0.9753420865620249,0.9401061841328807,0.908497973292898,0.8848602620454143,0.8803367498359035,0.8693276792411774,0.8599174921948395,0.8443968050580627,0.8213685616070271,0.7896059565102688,0.757638709733995,0.7257786618741303,0.6996552063450397,0.6830536602118601,0.6955559634498208,0.71903022590281,0.7222712457777979,0.6952732967168175,0.6664430264800859,0.6596030883093745,0.6698576040952208,0.6952442705830976,0.7195806820031346,0.735622178205115,0.7426748013197101,0.7130508896433109,0.6704070250507138,0.6217756650664444,0.5747760286306639,0.5394434114683074,0.4989403144592287,0.4498882190322121,0.4007858801676333,0.3564845471153316,0.3104555356567513,0.2612274222457984,0.21204904319997797,0.1671503075686268,0.12178606398062353,0.07556734090829609,0.043055861122093586,0.051835180676585435,0.09640122742202173,0.140555908434286,0.18671813616945832,0.2359541782826695,0.28521725928892294,0.33448034029517637,0.38374342130143,0.43300650230768334,0.4822695833139369,0.5315326643201902,0.5807957453264437,0.6300588263326973,0.6793124550560029,0.7265513058368432,0.7698701818024868,0.8187140121503108,0.8663508958834253,0.9086001957442035,0.9459636945823099,0.9585770750708685,0.9458482874197055,0.9079560619777055,0.8661322804402282,0.8315496896155742,0.8059747215084981,0.7995223999769222,0.8103008876321572,0.8066190151338771,0.7854993630423438,0.7593255387886738,0.7321883945782784,0.707482809489986,0.6828601790041057,0.6608739595965397,0.6583309211033973,0.6780663479486898,0.706789249316823,0.7220075541955441,0.6968305145084285,0.6669697269204892,0.6425834712268378,0.6392248714117214,0.6529141252248304,0.6739412530861287,0.6935908672642855,0.698900477871096,0.6769175801133268,0.6306225357368477,0.587010265016649,0.540204631845422,0.4909785013239808,0.44450965381379015,0.4005917150385109,0.3515594873107464,0.30229644368588227,0.2530423637742989,0.20580816155592374,0.16250564767753672,0.11365599390802661,0.06714640659189641,0.02434178534721676,0.0,0.025748902591041234,0.07017699163163471,0.11935867612389117,0.16729025723170132,0.21022423820150415,0.25876011589800874,0.3080224130212771,0.3572854940275305,0.40654857503378394,0.4558116560400375,0.5050747370462899,0.5542264875677215,0.5989265196886847,0.644525121127196,0.6937355542866713,0.7429986190708137,0.7921031755997571,0.8363741634111969,0.8817259870819837,0.9230141876800381,0.9528611077909305,0.9656029389268884,0.9391834052370128,0.9000003314855537,0.8646483607016703,0.8399652742894405,0.8315380221620966,0.8326099446768981,0.8366796900678303,0.8167591901565704,0.7909262499472084,0.7635848920161507,0.7316918988510165,0.7019191428191766,0.6713381121998413,0.6450529466273639,0.6407495214908409,0.6565637215778771,0.6745900117751825,0.6626727100386888,0.6571224680311535,0.6706781473366422,0.6874943308078306,0.7111379457951613,0.7351219318729528,0.7467478640234037,0.7353438751030393,0.6970079393373713,0.6516765200422682,0.6073937143939651,0.5582867469049803,0.5090238281198508,0.4601442133257575,0.4167576824762377,0.36961560766549506,0.32036286417514914,0.2710997831688968,0.22183670216264229,0.17257884220172182,0.12497233746864211,0.08232074075871754,0.049466305353705886,0.0644225608336273,0.10457424679821337,0.15273203854783013,0.2019932567072168,0.2512541061783198,0.29938580458019426,0.34228452430708867,0.39065521074594345,0.4399171549538504,0.48918023596010507,0.5384433169663575,0.5877063979726119,0.6368713436604531,0.6817650275491501,0.7271655430113729,0.7763660158606264,0.8247978902035947,0.8676352402680284,0.9133739298967655,0.9514944653094756,0.9748240554158086,0.9798789595856982,0.9470426077260551,0.912656826429404,0.8850908455724548,0.873694029689342,0.8703199709574835,0.8709567110824475,0.8869481494310293,MI
0.5714497259614215,0.5978197296127643,0.6257773094622325,0.6537377207113315,0.6833490138427205,0.7146312365605187,0.7380088584932174,0.7240928295819224,0.7283443418750621,0.7536850967139699,0.7819334395688418,0.8065354327085927,0.8287894161072207,0.8442201250149857,0.8563987738552856,0.8688540686823678,0.8753134927328636,0.8756414687165728,0.8756414687165728,0.8756414687165728,0.875659848795064,0.8785945390333123,0.8835800631701023,0.8837848215534541,0.8880627583783283,0.8915443174165556,0.8860915615660017,0.8837265051094054,0.8836780906034039,0.8795210076340894,0.8662095174207616,0.8542280524335264,0.8445408683750515,0.8521944484383976,0.865940656683093,0.879363186875421,0.8927560558618657,0.8996455635105656,0.9049815862190673,0.902295502617849,0.8998742179851769,0.8998620892746272,0.8998620892746272,0.8998516970549171,0.896824473726962,0.8772422623528982,0.8453068378859281,0.8103698746541026,0.7787427682819845,0.7417631334618409,0.7045299081858469,0.6674684157578252,0.6356115815964054,0.6008908841133758,0.5636703776462593,0.5264371099648577,0.4892038422834564,0.45197110180441574,0.4155451092452435,0.38462756122819214,0.34834303833299524,0.31111104406246753,0.27387777638106653,0.23664734054297537,0.20079743855110715,0.16972445980146483,0.13309607191046507,0.10525976712195889,0.11637069481645862,0.1507866232139375,0.18801330193212,0.22524584198769765,0.2617189047500679,0.29266046008635765,0.3288735522175385,0.36610610015310835,0.4033393678345099,0.44057263551591136,0.4778059031973129,0.5150349484648544,0.550624388009153,0.5818514525172993,0.6183437214402148,0.6459906707315115,0.6770559002827636,0.7142181564090679,0.7514513427179312,0.788378523605926,0.819774673616404,0.8550828351040225,0.8920496106159268,0.9228937515735645,0.9441233419501454,0.9584788173234313,0.9614040037825489,0.9632876655334368,0.9704361625559319,0.9708765786931468,0.9626097731786347,0.9603107024843793,0.950515136992145,0.9299024184660023,0.9052138934250773,0.8803886543471273,0.8549593539309177,0.8281151911079454,0.8032331381729512,0.7784103717057709,0.7532257989277105,0.7253163996651644,0.6961281942130024,0.6709452448202466,0.6446079378431324,0.6234221787022782,0.5992748470900273,0.5756956794632571,0.5622512190239497,0.5705370525779816,0.5952641410191992,0.6229948182306453,0.6477625070457314,0.6771204148861447,0.706860981089509,0.7348416300311529,0.7627657152066667,0.7894767639292914,0.8163896506722494,0.8372159688067069,0.8537364790991495,0.8642327759980171,0.8716224739716225,0.8755582534734891,0.8718355596428693,0.868661010752845,0.8748945500981151,0.8756409965266325,0.8756414687165728,0.8756414687165728,0.8756414687165728,0.8756075919239543,0.8720176126473946,0.8676413758005699,0.8677891026188644,0.8732085258274913,0.8741389457832212,0.8616402509464538,0.8474420087469328,0.8433925181389546,0.846006194979819,0.860731744974836,0.880554501724728,0.8934758431091787,0.8996122113638987,0.8998620892746272,0.8996857291856912,0.8942954057894639,0.8922242597546246,0.8982319576723337,0.8998360712791593,0.8960159015299756,0.873592126078595,0.8423136432993448,0.8053066690811155,0.768180734641094,0.7356258685931689,0.7016490040921204,0.6644471557329104,0.6272138880515086,0.589980620370107,0.5527475039728613,0.5159976290785098,0.48488398792376536,0.4491187508393089,0.41188782214911784,0.3746545544677173,0.3374212867863157,0.3002891952254702,0.2676660797323644,0.23376070699622725,0.19656175624672795,0.1593284885653265,0.12209522088392494,0.08492014981698354,0.05178260172403498,0.018846023981243354,0.0,0.024890931309312136,0.055896236465635185,0.09265068702680629,0.12988381259278886,0.16711708027419042,0.20435034795559187,0.24158361563699232,0.278816883318394,0.31605015099979544,0.3531847490343792,0.38578158525067113,0.419704968014105,0.4569096815393832,0.4941429492207848,0.5313762169021863,0.568609484583587,0.6058427522649883,0.643075826256827,0.6796847843966096,0.7107030033906885,0.7467040710034676,0.7839355504859777,0.8211688181673793,0.8583907477679,0.8932773982104265,0.9250081197989508,0.9617888224694873,0.9875957666268751,0.9959442866157555,0.9967805436124069,1.0,0.9992663184643065,0.9967457843458003,0.9937390875428989,0.9812901213451883,0.965323187908987,0.9420170198340458,0.9128927516055938,0.8871770069472991,0.8626351327931991,0.8335754770256667,0.8083884130290531,0.781231229191715,0.7533492954219576,0.7272323267963692,0.7014161350934183,0.6694875965995175,0.6393665903393697,0.6158808363534987,0.5910721318089798,0.5663040846757819,0.5448562827055874,0.5374934668396172,0.5543442251341315,0.5815254173479847,0.6089898360927506,0.6402182805293621,0.6687740750024316,0.6966873100252498,0.7247424113311536,0.754120865003346,0.7794180413204084,0.8058509389722555,0.8302414012501327,0.8500004302240389,0.8609036719079972,0.8709168367884366,0.8800588124093209,0.8836822726749358,MI
0.5714497259614215,0.5978197296127643,0.6257773094622325,0.6537377207113315,0.6833490138427205,0.7146312365605187,0.7380088584932174,0.7240928295819224,0.7283443418750621,0.7536850967139699,0.7819334395688418,0.8065354327085927,0.8287894161072207,0.8442201250149857,0.8563987738552856,0.8688540686823678,0.8753134927328636,0.8756414687165728,0.8756414687165728,0.8756414687165728,0.875659848795064,0.8785945390333123,0.8835800631701023,0.8837848215534541,0.8880627583783283,0.8915443174165556,0.8860915615660017,0.8837265051094054,0.8836780906034039,0.8795210076340894,0.8662095174207616,0.8542280524335264,0.8445408683750515,0.8521944484383976,0.865940656683093,0.879363186875421,0.8927560558618657,0.8996455635105656,0.9049815862190673,0.902295502617849,0.8998742179851769,0.8998620892746272,0.8998620892746272,0.8998516970549171,0.896824473726962,0.8772422623528982,0.8453068378859281,0.8103698746541026,0.7787427682819845,0.7417631334618409,0.7045299081858469,0.6674684157578252,0.6356115815964054,0.6008908841133758,0.5636703776462593,0.5264371099648577,0.4892038422834564,0.45197110180441574,0.4155451092452435,0.38462756122819214,0.34834303833299524,0.31111104406246753,0.27387777638106653,0.23664734054297537,0.20079743855110715,0.16972445980146483,0.13309607191046507,0.10525976712195889,0.11637069481645862,0.1507866232139375,0.18801330193212,0.22524584198769765,0.2617189047500679,0.29266046008635765,0.3288735522175385,0.36610610015310835,0.4033393678345099,0.44057263551591136,0.4778059031973129,0.5150349484648544,0.550624388009153,0.5818514525172993,0.6183437214402148,0.6459906707315115,0.6770559002827636,0.7142181564090679,0.7514513427179312,0.788378523605926,0.819774673616404,0.8550828351040225,0.8920496106159268,0.9228937515735645,0.9441233419501454,0.9584788173234313,0.9614040037825489,0.9632876655334368,0.9704361625559319,0.9708765786931468,0.9626097731786347,0.9603107024843793,0.950515136992145,0.9299024184660023,0.9052138934250773,0.8803886543471273,0.8549593539309177,0.8281151911079454,0.8032331381729512,0.7784103717057709,0.7532257989277105,0.7253163996651644,0.6961281942130024,0.6709452448202466,0.6446079378431324,0.6234221787022782,0.5992748470900273,0.5756956794632571,0.5622512190239497,0.5705370525779816,0.5952641410191992,0.6229948182306453,0.6477625070457314,0.6771204148861447,0.706860981089509,0.7348416300311529,0.7627657152066667,0.7894767639292914,0.8163896506722494,0.8372159688067069,0.8537364790991495,0.8642327759980171,0.8716224739716225,0.8755582534734891,0.8718355596428693,0.868661010752845,0.8748945500981151,0.8756409965266325,0.8756414687165728,0.8756414687165728,0.8756414687165728,0.8756075919239543,0.8720176126473946,0.8676413758005699,0.8677891026188644,0.8732085258274913,0.8741389457832212,0.8616402509464538,0.8474420087469328,0.8433925181389546,0.846006194979819,0.860731744974836,0.880554501724728,0.8934758431091787,0.8996122113638987,0.8998620892746272,0.8996857291856912,0.8942954057894639,0.8922242597546246,0.8982319576723337,0.8998360712791593,0.8960159015299756,0.873592126078595,0.8423136432993448,0.8053066690811155,0.768180734641094,0.7356258685931689,0.7016490040921204,0.6644471557329104,0.6272138880515086,0.589980620370107,0.5527475039728613,0.5159976290785098,0.48488398792376536,0.4491187508393089,0.41188782214911784,0.3746545544677173,0.3374212867863157,0.3002891952254702,0.2676660797323644,0.23376070699622725,0.19656175624672795,0.1593284885653265,0.12209522088392494,0.08492014981698354,0.05178260172403498,0.018846023981243354,0.0,0.024890931309312136,0.055896236465635185,0.09265068702680629,0.12988381259278886,0.16711708027419042,0.20435034795559187,0.24158361563699232,0.278816883318394,0.31605015099979544,0.3531847490343792,0.38578158525067113,0.419704968014105,0.4569096815393832,0.4941429492207848,0.5313762169021863,0.568609484583587,0.6058427522649883,0.643075826256827,0.6796847843966096,0.7107030033906885,0.7467040710034676,0.7839355504859777,0.8211688181673793,0.8583907477679,0.8932773982104265,0.9250081197989508,0.9617888224694873,0.9875957666268751,0.9959442866157555,0.9967805436124069,1.0,0.9992663184643065,0.9967457843458003,0.9937390875428989,0.9812901213451883,0.965323187908987,0.9420170198340458,0.9128927516055938,0.8871770069472991,0.8626351327931991,0.8335754770256667,0.8083884130290531,0.781231229191715,0.7533492954219576,0.7272323267963692,0.7014161350934183,0.6694875965995175,0.6393665903393697,0.6158808363534987,0.5910721318089798,0.5663040846757819,0.5448562827055874,0.5374934668396172,0.5543442251341315,0.5815254173479847,0.6089898360927506,0.6402182805293621,0.6687740750024316,0.6966873100252498,0.7247424113311536,0.754120865003346,0.7794180413204084,0.8058509389722555,0.8302414012501327,0.8500004302240389,0.8609036719079972,0.8709168367884366,0.8800588124093209,0.8836822726749358,MI
0.9763723900262266,1.0,0.9947609605283357,0.959754897255756,0.9286612237015323,0.9060659154729779,0.8999116284818532,0.9060508850336259,0.9049681096573746,0.887101559360243,0.858440066998076,0.8276293170931016,0.8005238839104004,0.7723762117986953,0.7464739549466292,0.7429124014375378,0.760616408661903,0.7827147315608772,0.7864276303964463,0.7684952797209806,0.7480993767631833,0.7440481574294885,0.75065442159597,0.757607991833232,0.7647466275794174,0.7668674690140777,0.7315628338139101,0.682481059307796,0.6332181764934365,0.5844022771665748,0.5411595129452934,0.4938117891980941,0.44455716458770744,0.3954012459158541,0.3506845431673935,0.30510798362400904,0.25609335117759546,0.2120744461663907,0.1667691571330968,0.13529146681336002,0.14433827641508934,0.1880031352151651,0.23648884811032067,0.27936235019999855,0.32737509829918254,0.37663532143680045,0.42589840244305377,0.475138143028773,0.5216395831055839,0.5655121474392696,0.6145592281471463,0.6638223006896887,0.7130830641455613,0.7611897478856767,0.804092575114422,0.8520180664593394,0.8951658976260576,0.9362937950089406,0.9607581178624146,0.9858502899268274,0.9753420865620249,0.9401061841328807,0.908497973292898,0.8848602620454143,0.8803367498359035,0.8693276792411774,0.8599174921948395,0.8443968050580627,0.8213685616070271,0.7896059565102688,0.757638709733995,0.7257786618741303,0.6996552063450397,0.6830536602118601,0.6955559634498208,0.71903022590281,0.7222712457777979,0.6952732967168175,0.6664430264800859,0.6596030883093745,0.6698576040952208,0.6952442705830976,0.7195806820031346,0.735622178205115,0.7426748013197101,0.7130508896433109,0.6704070250507138,0.6217756650664444,0.5747760286306639,0.5394434114683074,0.4989403144592287,0.4498882190322121,0.4007858801676333,0.3564845471153316,0.3104555356567513,0.2612274222457984,0.21204904319997797,0.1671503075686268,0.12178606398062353,0.07556734090829609,0.043055861122093586,0.051835180676585435,0.09640122742202173,0.140555908434286,0.18671813616945832,0.2359541782826695,0.28521725928892294,0.33448034029517637,0.38374342130143,0.43300650230768334,0.4822695833139369,0.5315326643201902,0.5807957453264437,0.6300588263326973,0.6793124550560029,0.7265513058368432,0.7698701818024868,0.8187140121503108,0.8663508958834253,0.9086001957442035,0.9459636945823099,0.9585770750708685,0.9458482874197055,0.9079560619777055,0.8661322804402282,0.8315496896155742,0.8059747215084981,0.7995223999769222,0.8103008876321572,0.8066190151338771,0.7854993630423438,0.7593255387886738,0.7321883945782784,0.707482809489986,0.6828601790041057,0.6608739595965397,0.6583309211033973,0.6780663479486898,0.706789249316823,0.7220075541955441,0.6968305145084285,0.6669697269204892,0.6425834712268378,0.6392248714117214,0.6529141252248304,0.6739412530861287,0.6935908672642855,0.698900477871096,0.6769175801133268,0.6306225357368477,0.587010265016649,0.540204631845422,0.4909785013239808,0.44450965381379015,0.4005917150385109,0.3515594873107464,0.30229644368588227,0.2530423637742989,0.20580816155592374,0.16250564767753672,0.11365599390802661,0.06714640659189641,0.02434178534721676,0.0,0.025748902591041234,0.07017699163163471,0.11935867612389117,0.16729025723170132,0.21022423820150415,0.25876011589800874,0.3080224130212771,0.3572854940275305,0.40654857503378394,0.4558116560400375,0.5050747370462899,0.5542264875677215,0.5989265196886847,0.644525121127196,0.6937355542866713,0.7429986190708137,0.7921031755997571,0.8363741634111969,0.8817259870819837,0.9230141876800381,0.9528611077909305,0.9656029389268884,0.9391834052370128,0.9000003314855537,0.8646483607016703,0.8399652742894405,0.8315380221620966,0.8326099446768981,0.8366796900678303,0.8167591901565704,0.7909262499472084,0.7635848920161507,0.7316918988510165,0.7019191428191766,0.6713381121998413,0.6450529466273639,0.6407495214908409,0.6565637215778771,0.6745900117751825,0.6626727100386888,0.6571224680311535,0.6706781473366422,0.6874943308078306,0.7111379457951613,0.7351219318729528,0.7467478640234037,0.7353438751030393,0.6970079393373713,0.6516765200422682,0.6073937143939651,0.5582867469049803,0.5090238281198508,0.4601442133257575,0.4167576824762377,0.36961560766549506,0.32036286417514914,0.2710997831688968,0.22183670216264229,0.17257884220172182,0.12497233746864211,0.08232074075871754,0.049466305353705886,0.0644225608336273,0.10457424679821337,0.15273203854783013,0.2019932567072168,0.2512541061783198,0.29938580458019426,0.34228452430708867,0.39065521074594345,0.4399171549538504,0.48918023596010507,0.5384433169663575,0.5877063979726119,0.6368713436604531,0.6817650275491501,0.7271655430113729,0.7763660158606264,0.8247978902035947,0.8676352402680284,0.9133739298967655,0.9514944653094756,0.9748240554158086,0.9798789595856982,0.9470426077260551,0.912656826429404,0.8850908455724548,0.873694029689342,0.8703199709574835,0.8709567110824475,0.8869481494310293,MI
0.5695049780970205,0.5628409378903987,0.5464235986827908,0.521096294787607,0.4924219500850622,0.46467687178751715,0.4326437509640375,0.3988934606818486,0.3682090366415316,0.3345377016270177,0.30039630393315875,0.26666921326129533,0.2281959682429595,0.1928834571062441,0.16200791889143895,0.1267162690392536,0.09483292405103971,0.07198314982099951,0.0504130304650634,0.02563370662687814,0.01752880738529261,0.03260709735069445,0.04907395068742071,0.06394001261391558,0.0785618503899419,0.09904467169392905,0.11498745907796182,0.1247369892470982,0.1344856345523564,0.15348614143507677,0.17652158588555578,0.20968265285857868,0.24524160332206724,0.28061634072194575,0.31732710752309345,0.35742843288012627,0.39371974008951227,0.42959017253981746,0.4695996598335286,0.5051448591033227,0.541768792896081,0.5818679752923368,0.6182561034409344,0.6540318579128048,0.6941117536620645,0.7313630380854155,0.7663305152707498,0.8063483951787054,0.8454602448141628,0.8791948879132916,0.9168647462250203,0.9501381655194732,0.9733405711569576,0.9571719575366278,0.9234147625108049,0.889733770254425,0.8510594922571302,0.8158486492222063,0.7788990530810747,0.741588123471522,0.7067523723468734,0.6705821818754512,0.634884639081752,0.6016180719722961,0.5809523917859347,0.5741793664212511,0.5751568270986731,0.5693962048602663,0.5597090537188489,0.5368403878362298,0.5374993095703091,0.5517510952140723,0.560949352900781,0.5629019298288893,0.5683231982410153,0.5669154921546458,0.5763312204724165,0.5753499562805324,0.5686766084067423,0.5610236042215377,0.5529572283772752,0.5439816191308111,0.5367691304647835,0.5372033092748738,0.5439664286789163,0.550942174576537,0.5580102500601036,0.5591676985083929,0.5724331757242858,0.5778478765580526,0.5765200147327088,0.5594524429610799,0.5366083248281261,0.5050783768612062,0.46967032339277015,0.43938161400416353,0.40838421516530166,0.37473398838777205,0.34089431340685894,0.30733510859287305,0.2748839570256978,0.24210580136649162,0.20878591705431226,0.17380880178590008,0.14513111013346736,0.113878916488525,0.08156541570055831,0.053171908331018036,0.03461390736320469,0.039547548130034915,0.0508104766676194,0.06846175070169624,0.08153562498376288,0.09613296775224622,0.11163963570980351,0.1265424951640648,0.14257317559530347,0.15228104890107463,0.17790621874956636,0.21100417708080998,0.24335429040621825,0.2805685888911491,0.3145425096153367,0.3530693952246373,0.39254958740714896,0.42613013614129125,0.45796126869297105,0.4890820523575019,0.5289890577344594,0.5691715357441527,0.6086954240240079,0.6424107917722488,0.6813926911630914,0.7215396759282737,0.758315087833719,0.7937121110533996,0.8335787662264851,0.8680925642000319,0.9018940126911079,0.9350649516704947,0.9487363282442289,0.9261927836947883,0.893283060733191,0.8570213136876477,0.8219553572866247,0.7860397055125201,0.7500907133839216,0.7151004203772304,0.678031188545535,0.6424709839784677,0.6082883315355117,0.5935683792081687,0.5846867078476801,0.5778412418501462,0.5688691667982257,0.5645367253200437,0.5477771917617518,0.5452233295732731,0.5621490895833356,0.574489590519351,0.5659504053335795,0.5661154328826257,0.5625486028838314,0.5612828164395474,0.5602168056218597,0.5493812874081361,0.549021460325108,0.5481005632090195,0.5377610747190744,0.5332521347770478,0.5359818130097953,0.5468224228893652,0.5497287021629922,0.5602835631782261,0.5711458393188491,0.5778240850852403,0.5845686490410424,0.5929707618988052,0.586769677842458,0.5681318678009493,0.5390466532700855,0.508876387676312,0.4795391647993017,0.44651855397122775,0.41377738214236626,0.3813066210710905,0.3477526395359063,0.3124020655293587,0.27904951803510425,0.24591011628496484,0.2124808171831405,0.17871862140747052,0.14647475439606872,0.11100181181688917,0.07637705046103149,0.04766621805168492,0.01826165417532677,0.0,0.0012900918248571758,0.019757634388851364,0.03739922080436375,0.057969547131755395,0.07234430105042189,0.08931942179562813,0.10539411678395672,0.12020549621004939,0.1356915987879399,0.1541099800863186,0.18020232803514347,0.2135780006792014,0.2501970740449633,0.2903412440632218,0.33052412766486894,0.3703355586676278,0.40447986059632535,0.4427462313400812,0.4815291179773218,0.5132161533672663,0.5403709152706198,0.5784819135842101,0.6169621378759598,0.6509398168562595,0.6907012921240407,0.7308447207270368,0.7674264907540576,0.8030128892690604,0.8430884990967651,0.8805004966859269,0.9151582612943348,0.9498463110898236,0.9846333978079929,1.0,0.9764293949670486,0.9426740654114991,0.9060105627115624,0.872028241993098,0.8323216801265358,0.792560366012518,0.7585826870322181,0.7201192106925378,0.6828755741596007,0.6481136617161936,0.6142480912585209,0.5985623420581834,0.5993730663956989,0.5946359383651558,0.5898589344139855,0.5777472335596507,0.5661572881976509,0.5761487390961291,0.5968652466342474,0.5937797378414242,0.5915936713742871,0.590646261728667,0.5888826962527938,MI
0.8065906622805481,0.7742130232844058,0.7351299455999762,0.6991741856349876,0.6619144783747077,0.6280584096642561,0.597588738953738,0.5600405714001864,0.534977567563143,0.5262344101659291,0.5141636926120232,0.49710011456299075,0.4883610709481345,0.5003099956866173,0.5191539439145487,0.5205051002171237,0.5130044744927671,0.5039632871680892,0.4951135541375167,0.4803851902471794,0.46434968672246146,0.45695214204510237,0.46370015630236505,0.47836895977138894,0.49565302032318015,0.5082352112866064,0.5135704693689032,0.4998478976981242,0.4756768494299384,0.44618335645212137,0.4137888029111565,0.3797910586415365,0.34569938771114583,0.31159002975734373,0.2764840486437401,0.24082816894671422,0.20816009258596657,0.1788177931632794,0.14485505852811853,0.11108950074970425,0.07835989550798039,0.04703238048431291,0.02044650448270524,0.020350936513860773,0.047685395525456475,0.07766849427391043,0.10359948200704139,0.13016522778357353,0.1541294987791375,0.17758584133130884,0.20334094449703477,0.22774294542266915,0.24977151987649182,0.2755927417041222,0.3077411282888267,0.3387815718553131,0.37374330777515086,0.41142634267444866,0.4488898799524954,0.4862795180475814,0.5271009102984521,0.5679935567274994,0.6088860339766704,0.6493856676910108,0.6851931423561204,0.7245579150086285,0.7654442133534738,0.806120725249369,0.8423489929553662,0.8811245546056241,0.9216564788675501,0.9575296182520452,0.9915695948273078,0.9972274623837032,0.9670400565754367,0.9292557769782239,0.8923602329775149,0.8531767270547648,0.8196777521679881,0.7845196339042084,0.7540561288302552,0.7211305719095353,0.6848774753557514,0.6490222803966819,0.6143676173778592,0.5810486526266214,0.5544031840814938,0.5429367623873109,0.5299281468192762,0.5168144302120792,0.5067032511747032,0.5160769356955774,0.5269423682897068,0.5321316387281243,0.5274582314139056,0.5192065426449213,0.5111046396358663,0.5010298043148309,0.48491599566430854,0.4673287975259115,0.451822049193225,0.4451590599820008,0.4533735443473559,0.47056742835371645,0.4845833708802836,0.4905817377993631,0.4803565307960975,0.45729624073908837,0.42698820355032274,0.39596043011108994,0.36304549564989763,0.3288445190863407,0.29370575147795264,0.2596895377996331,0.22657496319446113,0.19032723915842642,0.1542348548584892,0.11763119817724377,0.08456358304304812,0.05075808697325235,0.019943465435182328,0.0,0.01427557090910403,0.03996634222113804,0.06962861438067469,0.09728973627193971,0.12429525090833493,0.14692379329567684,0.17020166417003912,0.1935891291515558,0.21687755886743287,0.2414523925222536,0.27023479662701044,0.3015978269563113,0.33668319021340376,0.3749624169506247,0.4108374336500158,0.4498128290942043,0.48590378303836457,0.5248559380604241,0.5653412505499444,0.6011391904136936,0.6405174991327716,0.681403962829308,0.7222966092583554,0.763189255687402,0.8040819021164491,0.8449745485454965,0.8857402137548838,0.9205434735320468,0.9476890930871977,0.9810382692114792,1.0,0.9777986320337992,0.9422968911381642,0.9017520426621468,0.8637164652886771,0.8327959546515555,0.7941514707195454,0.7585613000045148,0.7187287160113582,0.682933279136611,0.6438773760234391,0.6109672384706755,0.5757618175371619,0.5399858075183652,0.5195107030981305,0.5063612472053904,0.48732481373470327,0.4696776268620251,0.4708349143526569,0.493434031311595,0.5051132588500142,0.5105228021839581,0.5123791987244444,0.5121238768261347,0.5053809327700234,0.4919755134154906,0.4793482358358174,0.4675215175708056,0.4504586750394066,0.4359002075121974,0.4241904476687095,0.43043061680629635,0.4485875199667857,0.4652376876269444,0.48319558942061147,0.4903478092157709,0.47891854871078987,0.4550495425609964,0.4271492263152854,0.3951102359045855,0.36239544470362905,0.3285286671983183,0.28970431460916535,0.25504992889727673,0.22055309886533636,0.18582249007773144,0.15175190742524147,0.11798981130825315,0.08474675727218606,0.053043961413912766,0.023261513954636936,0.008877328399689688,0.032235892512780806,0.05787242850524055,0.08237257726764746,0.1035475413658008,0.1200810074157922,0.1365951731392897,0.1558733511015964,0.17855795742025793,0.20571865670203837,0.23150556990740379,0.25250331769050716,0.2391778289019595,0.2573940886804178,0.2693503950966847,0.2801735084445274,0.3097144143218762,0.3306086562879831,0.3130394934935965,0.28895212560995187,0.30605312545229957,0.33477202701800746,0.3444177028128572,0.3664452197913537,0.4017057343814776,0.4406125643473331,0.4768825557470273,0.50437143013631,0.5423040240370469,0.5831736110844823,0.6240404342592256,0.6622880744992736,0.698978240350913,0.7397316884354619,0.7805835658435767,0.8184802916052596,0.8549897396929935,0.8903322521166532,0.9212682108571348,0.9219922596143797,0.8921805773078786,0.8527022744971269,0.8131047934087419,0.7777092405594699,0.7421102237298314,0.7031453413820905,0.6623277808439558,0.6248250485829301,0.5877434412482576,0.554098339254345,0.5246236696874751,0.4925401550697963,MI
