0,1,2,3,4,5,6,7,8,9,10,11,12,13,14,15,16,17,18,19,20,21,22,23,24,25,26,27,28,29,30,31,32,33,34,35,36,37,38,39,40,41,42,43,44,45,46,47,48,49,50,51,52,53,54,55,56,57,58,59,60,61,62,63,64,65,66,67,68,69,70,71,72,73,74,75,76,77,78,79,80,81,82,83,84,85,86,87,88,89,90,91,92,93,94,95,96,97,98,99,100,101,102,103,104,105,106,107,108,109,110,111,112,113,114,115,116,117,118,119,120,121,122,123,124,125,126,127,128,129,130,131,132,133,134,135,136,137,138,139,140,141,142,143,144,145,146,147,148,149,150,151,152,153,154,155,156,157,158,159,160,161,162,163,164,165,166,167,168,169,170,171,172,173,174,175,176,177,178,179,180,181,182,183,184,185,186,187,188,189,190,191,192,193,194,195,196,197,198,199,200,201,202,203,204,205,206,207,208,209,210,211,212,213,214,215,216,217,218,219,220,221,222,223,224,225,226,227,228,229,230,231,232,233,234,235,236,237,238,239,240,241,242,243,244,245,246,247,248,249,250,251,252,253,254,Target
0.5216191532075878,0.5678719501210292,0.5943198762511823,0.5859837595310298,0.588841239798219,0.5685596110953504,0.5674918730069298,0.5736371961991287,0.5725805185802404,0.5798743167702738,0.5830196762222122,0.5880090705479568,0.6092754572581205,0.6141779182958262,0.6025678770025573,0.5576259533173955,0.5324427355656898,0.538288562882105,0.582535519430079,0.6165848429279803,0.6247915140866795,0.6060322517368948,0.6145281780775878,0.6300042657628522,0.6600172412932284,0.6740225874462293,0.6290394460210131,0.6608945829942106,0.7438866084904845,0.8199177918620024,0.8002586899626052,0.7122246954309803,0.621019088392623,0.5336808839834122,0.45182324130678,0.3824788911405821,0.3007757748026756,0.24165325644876923,0.20697392626862987,0.16864191869249545,0.12811111197523717,0.10142098496906682,0.05542569969700928,0.023419930621162877,0.003395684315701697,0.0,0.035352075796970084,0.09953601580623417,0.16260272591445846,0.22870996652822528,0.29620619727696385,0.36844609159387787,0.4416126753905405,0.5048055599309729,0.5585080835381939,0.5911919584143166,0.5869093671230114,0.5786090640208226,0.5845311722928153,0.5969219115662638,0.5971214134967262,0.5971214134967262,0.5971214966589695,0.597615138868492,0.6087990257125262,0.6225071325358722,0.6150137385451062,0.5694668905215479,0.5399962091660697,0.5399796129105101,0.5881671635922947,0.6230177057325479,0.637824926167081,0.647914882494049,0.6419792618477165,0.6481335565323714,0.6713565647835638,0.679401447353428,0.6114240860859543,0.5998830053332722,0.6685870480775433,0.757536976914555,0.8255817421419613,0.7821548365357454,0.6824915761682786,0.5859843837727321,0.5011827763109737,0.41708556581595513,0.3363832359574692,0.2724003344500794,0.22707524448127536,0.1995967893260686,0.17221894502396173,0.13480718931638958,0.09790662484899437,0.06549543804838986,0.026260850243017497,0.017775803148638136,0.05228578017125729,0.10771042932122121,0.16596337784822746,0.2320390237087695,0.30230073725091433,0.37768957816024784,0.4454070999283415,0.5116510047970615,0.565688845287212,0.6061216971398724,0.6142238903537982,0.6125585165550373,0.5995869673445746,0.5971265747499355,0.5971011118102214,0.5929276049348151,0.588276154832124,0.5968925417678199,0.5971189889664958,0.5947856903756361,0.5617426686189146,0.5235846654169651,0.5163073283403916,0.556233751549911,0.5952267138238723,0.6202289058730508,0.6316462426836664,0.6506095560786629,0.6817195553775224,0.6755636170430543,0.6599163712664131,0.6346334497807837,0.5924243242839395,0.5738490490929227,0.607397487592666,0.6450666389121795,0.6516780836050282,0.6523344761935257,0.6542637963587703,0.6417157863197058,0.6382766202394747,0.6382707149197215,0.640735735506607,0.6538243065387297,0.6593324775622813,0.6714145403732674,0.6616341469779328,0.6295678542268375,0.5865763532063752,0.5305786217553994,0.4577704569779888,0.3837398410768409,0.31770091170690584,0.2504026932538528,0.18617538837473147,0.12384101616380816,0.07352689611200303,0.07849217958690913,0.11750560585766223,0.15455376583279845,0.18737750528997532,0.22238837978370274,0.24916506867936405,0.28358177743484303,0.3390598970367331,0.4167822863609074,0.4978015922453056,0.5842270967025383,0.6732163681248733,0.764134967836835,0.8553960134909828,0.9356682668838743,0.9910736183019271,0.9893843981065702,0.9214945414453193,0.8351024857658214,0.7839991481231885,0.8163571062536001,0.7847549084028245,0.7191782237147053,0.6972727440337034,0.695799261751382,0.69896405890622,0.6857296476007022,0.6668290725990302,0.6385813798735724,0.5983106722752498,0.6103350308301074,0.6548455591917182,0.6721248861159013,0.6653379932571726,0.6556752485412369,0.6542197092815116,0.6415841377030214,0.6383047147861136,0.6429569098743246,0.6492134730681083,0.6478254531923233,0.6424248625017075,0.6549463433272873,0.6470817689312724,0.6148405879761341,0.5668422223630367,0.49751081757675975,0.4309089585222323,0.36195335283901553,0.29260807839029157,0.22525970336689705,0.15558006534100777,0.08867028255713016,0.048815827173188,0.05482517162202161,0.08240605637643572,0.12316184810095354,0.15945261063137606,0.19414155930195776,0.2340747465348434,0.26896207912180126,0.3225488000599692,0.40069451973616443,0.4842818028911111,0.5720003954815693,0.6595011844427896,0.7578831734262113,0.8544909173175701,0.9387799970391395,1.0000000000000004,0.9830866289800935,0.9126769143860094,0.8266862414130389,0.7705483102544082,0.8122435507447281,0.7938640801631558,0.7229666685332727,0.6806798473022218,0.6679736244164101,0.6685058893466054,0.6859918024084921,0.6654073390476105,0.6350016998241905,0.5928823235311893,0.5901701096685823,0.6296201011231806,0.655044182951471,0.6642898447144603,0.6565581328264476,0.6458797735842805,0.6373377301541523,0.6321963088832496,0.6294408727416063,0.6212703237463586,0.62132746767782,0.6305167363702817,0.6383135431648088,0.6468202330555388,0.6426151700677347,0.6088064465899783,MI
0.17462748021088448,0.24132102103037256,0.30476195262899697,0.37177280883980446,0.4434210702331278,0.4987338954824755,0.548312549036688,0.5782317411033363,0.5569289242263351,0.5542859680177253,0.6182155481439194,0.6915909619177043,0.7641110248994749,0.8330676283482579,0.8821886204327127,0.8427361920024135,0.781543635791081,0.7433017678445968,0.7178081260203701,0.6732477553320657,0.6295676278140677,0.6086054540271584,0.6072743159659063,0.6187658307948338,0.6095686882728873,0.6132566843384178,0.6335088975366955,0.637941465071708,0.627531168324102,0.6399892919471265,0.6511669243022626,0.6282056030715234,0.574752129431867,0.5121802112643805,0.44226342111054895,0.37214207493300644,0.3011257816961229,0.2290125143951216,0.1596364300055681,0.08659489422561084,0.016571531849467358,0.0,0.05900404832240619,0.13117799000529584,0.20040019905262785,0.2731736891744224,0.34656707077105575,0.4169675440621138,0.4864026295588427,0.5513237054271314,0.6218546758090308,0.6910862548468955,0.7638656778982897,0.834593445108248,0.8973267620105685,0.8864035266355019,0.8228800619618342,0.7658061152837798,0.738890469530227,0.7109194841441451,0.6690153303061616,0.6417010815299907,0.6220949552664172,0.6069396364516273,0.5904927346931746,0.5831813800542527,0.6078896976253446,0.623182041965343,0.6184399423611919,0.6354424021535153,0.6446387622588006,0.6225557489408654,0.5645364918172485,0.4949203843339728,0.42527306642323126,0.3535366470574951,0.2890935723171404,0.22419203938062393,0.1549979305260361,0.08407844574039403,0.020311432248349193,0.019926913076954156,0.08544524480058235,0.1466968952442237,0.2003979353050379,0.2662186150222198,0.33945416164118447,0.4099318616265927,0.48070632777986,0.5541436566268432,0.6271100783517486,0.6964091990801387,0.7687349511230308,0.8416870049475165,0.9093025706726443,0.932960460475107,0.8770829949418479,0.8123139369892474,0.762491568270647,0.7474713834411617,0.7174059970202098,0.6752844100059825,0.6489639804640372,0.6269025558005725,0.6156598403503554,0.5951362303489428,0.5885776976289696,0.6106366991831356,0.6142578421820142,0.6277472787689651,0.6463302723902312,0.6333249598300645,0.5791199027218633,0.5076064817182855,0.43827073734256083,0.3679435497053982,0.2976822029346766,0.22797022389499544,0.15654234629890224,0.08597479135157188,0.01956878571707099,0.007716786918760321,0.06841224255732187,0.13877337117613597,0.20933042837113958,0.2827455372506582,0.3562583109875266,0.42977108472439474,0.5032820837530818,0.5761662859314771,0.6454218665484942,0.7178730715793573,0.7911511547984373,0.8604536692333427,0.901658560741831,0.857325029358486,0.7955434230991782,0.7565031943401155,0.7488739716603294,0.7137662600005081,0.6686590657559851,0.6480724226208551,0.6635555273323884,0.69546805163565,0.7424886555438137,0.7719138035197117,0.788130563545993,0.8418380287101153,0.9065126954695624,0.9603513883561041,0.9492029036483998,0.8825975816338365,0.8128497384231745,0.7402727711146253,0.6710373568752825,0.5986033408531003,0.5297371901362475,0.4636182906072932,0.3946801411117449,0.32263906380566854,0.2733080293617939,0.31564725017510864,0.38604141358808075,0.4561833400258718,0.5267935452534986,0.5945895492139723,0.6467117286823727,0.6638531328513245,0.6562122714529471,0.6360688318554334,0.630136938704836,0.6096285993597487,0.6132038415446066,0.6334815559791809,0.6487657706006942,0.6710583634491223,0.701441610401806,0.7444696208692263,0.7687413561444987,0.787958760660898,0.8484009654986209,0.916124553461946,0.9774987600624383,1.0,0.9534661356734588,0.892673497490245,0.8206343229087101,0.7471276905325399,0.6736149167956731,0.6001022871015731,0.5268198323452961,0.45698176101115284,0.3854887949890804,0.3120876735747593,0.25196071301709344,0.2790989440713507,0.3499244341357608,0.41927175756027857,0.4910912731018928,0.5595370362807643,0.6219111732486282,0.6566469376399277,0.6638902291731763,0.64601300953195,0.6420301805007105,0.6405618297504885,0.6164894524296013,0.6037754807493347,0.6225768942866378,0.6331206176627059,0.6534113514233322,0.6715389272448689,0.7103507759925927,0.7471509162592236,0.7658870927639281,0.8090903550198145,0.8733419020784581,0.9374452468563308,0.978279624159125,0.9408988162782153,0.8729449353314052,0.8022320708016182,0.7292709840027787,0.6599058433182816,0.5877156488049466,0.5142803975933635,0.44341299498205944,0.37302555320680886,0.3008303256678647,0.269667591803443,0.32602018696607404,0.39730263448547287,0.4671337966568929,0.540290205229026,0.6093647226325329,0.6553118675630761,0.670295132481772,0.6639613003338104,0.6486902515584143,0.6594879023676724,0.6537592941896738,0.6344157939619984,0.6302828849844887,0.6369613996516722,0.6259782313209471,0.6307816817580038,0.6500309424035621,0.6952303072857755,0.7364458934234033,0.7622900368283028,0.8083985126246125,0.8722173028203815,0.9301263946649019,0.9325551656434381,0.8766265055563109,MI
0.8768236737749813,0.8768237843349247,0.8772952119193176,0.8815176083273506,0.8638436170245398,0.8569390775262848,0.8761966448101968,0.8961964012260679,0.8723987227958083,0.7992068598023525,0.717703310088389,0.637022979064328,0.5488692856038981,0.4685346320688131,0.3820961165148422,0.2927045629411802,0.20552133285918361,0.1256434045918855,0.04830617879399601,0.05402708934255385,0.1340339243196298,0.20987418415705195,0.27830657681390436,0.35005111875682027,0.4255248472632591,0.5064250884017134,0.595388820641723,0.68322715336207,0.7630456790880593,0.8499289829589756,0.9180027463338722,0.9193709560141394,0.8989981036145982,0.8796722119407112,0.863298593855083,0.837462156306487,0.8010769190390656,0.7576409275222984,0.7107910521352139,0.6773175932369428,0.6850881181243598,0.7267633769004505,0.781094782093293,0.8425834889869888,0.8842854033182117,0.9087520960948889,0.9168933786588902,0.9143841143732512,0.9031031130466813,0.9023996960766054,0.9023496962782771,0.8979823731598617,0.8948629304468587,0.8908039215081953,0.8893310925233349,0.8817814933071892,0.8751523140871968,0.8755071565420829,0.8811677545345471,0.8757396157242356,0.8599878504527056,0.846651670427409,0.8627144461577829,0.8779121883816103,0.85949033480863,0.791214050659786,0.7272124541496967,0.6508235971181209,0.566486733652336,0.477400932652829,0.3953613062765553,0.3110303898123299,0.2217298931066234,0.13659510038095912,0.05677210320291737,0.010730838293915967,0.06656926888264691,0.1473127299296484,0.23216851288626206,0.3215306348684108,0.40968586065128565,0.48958822143433234,0.5769933562234555,0.6660764287314906,0.7477218222850064,0.8318013738958829,0.9015864616436591,0.896686028909137,0.8724630366529074,0.856745597429611,0.8450386330356683,0.8217705976696472,0.7839483962446552,0.7427130763045824,0.6920337241494494,0.6613727674806587,0.65564260092814,0.6911501069461188,0.7407926052530289,0.8006064155421815,0.849060278150702,0.8773940468415853,0.8889252969676009,0.8891682928484641,0.8808229656082889,0.8768568243082233,0.8768236737749813,0.8768236737749813,0.8768236737749813,0.8768236737749813,0.8768236737749813,0.8768236737749813,0.8768236737749813,0.8768140761823682,0.8739190813694979,0.856960071379193,0.8665677843813924,0.8795106393880177,0.8789345650977476,0.8242008586985985,0.7449952208979616,0.6613177163173634,0.575693405463177,0.4948538195112737,0.40595701014779184,0.3202017627597378,0.23939259968547888,0.15054338999556172,0.06637235371114714,0.0,0.025301688432905145,0.11171456361921694,0.20016656412935707,0.28017727657216795,0.36717620726034284,0.4565816809306218,0.5455140082245644,0.6264042989725429,0.7120290930015938,0.7973288156453966,0.8763711292744911,0.9169005572788536,0.9306372483459973,0.9652694586491621,0.9874338133435077,0.9400777717382216,0.8569278954349084,0.7847968230153872,0.7028573365261983,0.6219031997268392,0.5363925421997962,0.4528112102680524,0.4587498755592232,0.5442360510226363,0.6288153928992701,0.7104802320743395,0.7930800782222309,0.8681982112692486,0.9149470342769119,0.9177141129623381,0.9075866551598686,0.8995418173985728,0.9063375315223119,0.9075125865858198,0.9075143701292292,0.9075143701292292,0.9075143701292292,0.9075143701292292,0.9075143701292292,0.9075143701292292,0.9075202476115816,0.9095443550405935,0.9190530944476307,0.9203001485857298,0.9202263926011736,0.9148192021054438,0.8950669523922887,0.8503725412995269,0.7977045643319844,0.7415830560078411,0.7010119547271063,0.7103596045705245,0.753754763050666,0.7991161603429082,0.8380383906652635,0.8698819704635017,0.8923664322565259,0.9027770369949739,0.9196552109926535,0.9574550082874602,0.9880112229946649,0.9481742879969672,0.871242325101665,0.787216402355724,0.7064996153749077,0.6177143408454366,0.5434783726284624,0.5793668247567452,0.6658297443769039,0.7451551148102278,0.8239786711009305,0.8931285469929209,0.9188512209546962,0.9071699883646425,0.8927145364219131,0.8976792820064368,0.9130412804100525,0.9156092818587485,0.9202264385535239,0.920302160276832,0.9203155967918917,0.923107430285351,0.932270268310931,0.9330892649886169,0.9330899504244352,0.9331027495525774,0.9358482386987854,0.9467208309312529,0.9565019319782977,0.9491664043735069,0.9430846548301595,0.91548731018897,0.8688380324752776,0.8105726368923805,0.7565982951958787,0.7166171025008401,0.7325348586626814,0.7765399245813616,0.8212140148566902,0.8615266261647354,0.8873817764377152,0.908505289712976,0.9274753324097997,0.9462433280468063,0.9754112667655941,0.9999999999999998,0.9544816200724349,0.8770336985102556,0.7943124498172456,0.711432496615803,0.6224703872480721,0.5649100707098926,0.6250410582764798,0.7089204596575438,0.7903312256582808,0.8683513260047875,0.9265204531914824,0.9439709690478073,0.923379026431469,0.9038058349819946,0.9044596658129762,0.9182396651020268,0.9098574565668216,0.9075220680999363,0.9075143701292292,MI
0.6903459709075972,0.6542209582531604,0.6053028009146773,0.5470263984441945,0.502504431918573,0.4678968537115098,0.4235969858061672,0.37360229456115013,0.3229032189314798,0.31264816158187014,0.3745991692792312,0.4535466534401531,0.5345321137995382,0.616826388110556,0.6862713086682475,0.7070542290915001,0.694894127823418,0.7038499832023946,0.7168914756035731,0.7194296154779412,0.6835462942196278,0.657502076840389,0.6968588545801071,0.7430625382209326,0.7664978787209134,0.7458236643536478,0.6674234318734136,0.5716726099682696,0.4712064942714598,0.3738587386982186,0.2694930274159488,0.16840414457802244,0.0736361426934855,0.033984857586259576,0.10590781118803427,0.19738761282728112,0.28209147119808686,0.367606977926066,0.4652282320641048,0.5702293025374781,0.6720433862324942,0.7701918721723577,0.8657305086195801,0.8619458355323906,0.7854604258771074,0.7339086035554507,0.6929276081645528,0.6535131638753449,0.6025880258304854,0.5450490729225359,0.47231805367811774,0.40284764341208845,0.34276976382145796,0.3452252950892407,0.4093531885375863,0.4890070436795453,0.5761903417752887,0.6516763416843208,0.6977847997807303,0.7013988028902487,0.6991064691310878,0.7069229557324432,0.7157058112002088,0.6922723233188521,0.655233253411097,0.6665096649826807,0.7171774284188357,0.7554006897793728,0.7549740112281111,0.6934936353821779,0.6003917484260375,0.5007693687928516,0.4032885403682809,0.29870593344311636,0.19476206904601856,0.09778035662430384,0.006736993111373213,0.0,0.08663311007946328,0.1909611430143794,0.28906341199476815,0.39098445437540397,0.49629459380879215,0.6006014276725284,0.6978683150453264,0.8000941695160688,0.878281592547711,0.8395121610639238,0.7726557469571962,0.7199432676009767,0.6842569452559555,0.6454660615511671,0.5944653704537424,0.534276707373885,0.4620299662192764,0.39050617048117187,0.3316955618804147,0.32118478148514695,0.3817536574913578,0.4606285997054267,0.5466706599102389,0.6283354942437482,0.6915613591667409,0.7086558636188607,0.7043476089605638,0.7161062915771181,0.7268434807704875,0.7140734159589042,0.6718891568500496,0.6635045475608987,0.711338672608514,0.7518712318495016,0.7629321292912177,0.7260172603981381,0.6291196684922182,0.5396299599263457,0.45286887547122734,0.35713029289994425,0.2606059645951233,0.16019411862019184,0.06556034801495025,0.020957530997730123,0.09366791171767996,0.1903719322226165,0.2946049284902441,0.3970025040254912,0.49475997101214486,0.5994983266363612,0.7048460719582561,0.8100114996801624,0.8904264012819614,0.8485244461381807,0.7730314666128877,0.7203271601048875,0.6870894078808938,0.6469866333068797,0.5988273063782767,0.5827822985803082,0.6367431794879805,0.6826075720162754,0.7219381541320542,0.757508335615559,0.8203346640252287,0.9042632752265247,0.9859372582059385,0.9869505557697769,0.8997163753564064,0.8018850012274248,0.7002848466995715,0.5950236022813362,0.49340791592179123,0.4203550720050293,0.46792711631229933,0.5665045507669193,0.6631381695689784,0.7527479578843725,0.8000776621734316,0.7934072461889106,0.7651760052165777,0.7190941003192062,0.7081138556222122,0.7490731586200723,0.7613539756489607,0.7487863860347119,0.7350115213620272,0.7444489817933866,0.7412399691379821,0.6980151881223793,0.6232993087328877,0.5429607950654198,0.4614304947562906,0.38766549452253973,0.3838593319967236,0.44719964532705614,0.5182836279783909,0.5860201838377608,0.6416781025106604,0.6897182744444113,0.7242226684201609,0.7662912484517872,0.8360671419186148,0.9221329375957594,0.996019981795601,0.9716597846447284,0.8808884920645894,0.7808441769756127,0.6833292399565598,0.5964860855150724,0.49812270455784047,0.4102016000592006,0.44415375204005936,0.5397918222174038,0.6376840184133286,0.7330625414451861,0.7915903032063514,0.7943211420193277,0.767346913660816,0.7211291909465094,0.7058703944954796,0.7394881140872409,0.7491768533957215,0.7366046255584373,0.7312203655606946,0.7361775687799466,0.713802010814194,0.6506972975132694,0.5702157956267506,0.48966416842436744,0.4120961950299973,0.38674417038677134,0.44507481483819333,0.5126070951336734,0.5818700542481043,0.6415603746784879,0.6895070833629298,0.7285249060185948,0.7685957974259556,0.8282567877461677,0.9117462416129933,0.9941744298629709,0.9999999999999998,0.9181235346428129,0.8166689408642187,0.7186764434416233,0.6166439291927557,0.5125458634621749,0.46083983694633623,0.5320307354350342,0.6304357417779178,0.727008563525567,0.7978475679902324,0.8089581380892397,0.7920678635153637,0.7555147786521921,0.7113659989337044,0.7179806733578138,0.7515597679523609,0.759650647959915,0.7439968622034965,0.7365803578055898,0.7438831912436965,0.7417610829233741,0.6910545157481685,0.6204227489077541,0.5392830602693803,0.45914880307240513,0.38121558666683275,0.37245840529870633,0.4364983981710693,0.5045879500961512,0.5609394522434619,0.5996014756766967,0.6526335348212882,0.6957493401287502,0.7279180236419562,MI
0.5456766698572544,0.5731753742905408,0.5968232485610876,0.6524489098046935,0.7276427265236878,0.7995747112220457,0.8121727822230174,0.7463339966098654,0.6669766068519116,0.5828635238666611,0.501707193835236,0.4477376131583406,0.4269635468212105,0.39307649377416887,0.35201301543912233,0.2888753064699028,0.2142391637058999,0.13836729454176844,0.0649785117164523,0.04029719151272804,0.10242994447133391,0.180661722868103,0.2596423864329821,0.3338651823434131,0.3690825852793276,0.37262636361011015,0.39007067911983095,0.4307904829194955,0.49122553143137604,0.5549038455006567,0.6196413094511468,0.6776296755463691,0.6753384453221631,0.6396977374426971,0.6192563122188166,0.6109065317048676,0.6102984043217317,0.602151290755111,0.5930764730511389,0.6046954313683177,0.6304871663046869,0.6592680137256695,0.7222689939998179,0.7980404039377467,0.8723062705886808,0.8953490223315779,0.8287760776464006,0.7474070689865853,0.6681815017423893,0.5847995915611679,0.5058459353118012,0.42319144200908543,0.33932997164451106,0.26129318454817396,0.18751969082640618,0.1213419426275415,0.07444808615717424,0.11423190486009538,0.19008923466104377,0.2719978773289774,0.34590190136466514,0.36699604970404054,0.34972228091696933,0.349212530890908,0.3844593290942693,0.44524870659414706,0.5102406590033925,0.5756632027709221,0.6383309701908573,0.6609326718357738,0.6280287339860964,0.6057424398797178,0.602794991630458,0.6000710609203319,0.5800736519271295,0.5492093867659391,0.538009581639944,0.554999501655443,0.5773327302594349,0.6370492390711779,0.7118913248014467,0.7813374154959793,0.7744069330741881,0.6983407595336613,0.6190162220912112,0.5356499837222761,0.4567813466293007,0.37438064240940006,0.2953198335549647,0.21807848969137245,0.1426677810661643,0.06129757491939736,0.0,0.024842731690146835,0.09857176445783367,0.17625054804364038,0.2531413353338836,0.312307981723424,0.31489262015608177,0.3090883612728861,0.33677384568455637,0.3887176723829262,0.45413218598269234,0.5152769356125964,0.5764600405752647,0.6331140702883811,0.6313462959238505,0.5985354244439425,0.5935855840560671,0.6136476195183715,0.6304430723345504,0.629067020940854,0.6145545439814437,0.6186572559536905,0.6409312607446587,0.662053198334849,0.7211100708780218,0.7995591500818369,0.8743450702531803,0.897292802799672,0.8270352394262468,0.7483053038512157,0.6657920673254001,0.5867340122123301,0.5045746004945808,0.4250563161889398,0.3448683657571341,0.267867734810583,0.21368191131506953,0.2548331632930001,0.33374387053301335,0.4172300348502198,0.4960876267463683,0.5787488945568082,0.6588589109791851,0.7399560691844709,0.8218396341370922,0.9009142389399589,0.9767610160137348,1.0,0.9389295761702672,0.8611923689791949,0.7852401073943198,0.7120264467477164,0.6747686579311059,0.6562635014253466,0.6428159214680671,0.649845633046847,0.659181600739096,0.6497462792437532,0.6283260302798055,0.6203530939894868,0.6492936656493642,0.6756281708561165,0.6452341109637298,0.5823651308875932,0.5121882846307719,0.44568729304804955,0.38612323382437963,0.3469947016055501,0.3446369375208391,0.36466448270397755,0.3421248805054755,0.27360370857029936,0.19710826188827435,0.15000850542917943,0.1989106693289049,0.27447335994980226,0.35745618537115775,0.4418213354205687,0.5244826257111905,0.6033921358647769,0.6845684820865883,0.7635473004295383,0.8394939219613557,0.8715849350112157,0.8177597232798435,0.7385961330676898,0.6622848150546798,0.6033035330817071,0.5805828051003117,0.5693453751075821,0.5833106662435623,0.6130626796246965,0.6319300512720833,0.6341452402323757,0.6311768711459804,0.6491841003742953,0.6858303156649457,0.6890594149763778,0.6392165284450679,0.5753013479026317,0.5080125358217309,0.44066989132516876,0.38951205828730795,0.37989787823156007,0.39924010320045555,0.4020669199066391,0.3407769247534431,0.2646982919501166,0.2118009287791014,0.25654176783768246,0.3320927505243185,0.4106609972592292,0.48364918762033304,0.5558507543505742,0.6246105371033319,0.7060874765604785,0.785502598818143,0.8674295102102765,0.9495149729003602,0.9969689239823016,0.963252282253352,0.8930684011128738,0.8172280683323792,0.7401216697491289,0.6776381910095477,0.6553748882749875,0.6308221027691552,0.6227895107328665,0.6353897909761306,0.6376159756098994,0.6394714006356725,0.6492390765254274,0.6714769263485358,0.7109260056959505,0.7105798746956433,0.6594402262540358,0.5950548066332617,0.5307713258348854,0.4653508492896863,0.41941718486836566,0.40270235273383004,0.4068102425720481,0.38542697146922444,0.3144914625133506,0.23649527171843432,0.16284275865320108,0.15811479419519225,0.2285599338355182,0.3063555316560793,0.38487222893324824,0.45647505064641436,0.5307050042857724,0.6112243963605544,0.6915105733283178,0.7717640752701302,0.8513581500864136,0.9070012801342731,0.8763446086676214,0.8050065423315622,0.7297807859002432,0.6580857538282436,0.6166721111795304,0.5857692510437182,MI
0.8768236737749813,0.8768237843349247,0.8772952119193176,0.8815176083273506,0.8638436170245398,0.8569390775262848,0.8761966448101968,0.8961964012260679,0.8723987227958083,0.7992068598023525,0.717703310088389,0.637022979064328,0.5488692856038981,0.4685346320688131,0.3820961165148422,0.2927045629411802,0.20552133285918361,0.1256434045918855,0.04830617879399601,0.05402708934255385,0.1340339243196298,0.20987418415705195,0.27830657681390436,0.35005111875682027,0.4255248472632591,0.5064250884017134,0.595388820641723,0.68322715336207,0.7630456790880593,0.8499289829589756,0.9180027463338722,0.9193709560141394,0.8989981036145982,0.8796722119407112,0.863298593855083,0.837462156306487,0.8010769190390656,0.7576409275222984,0.7107910521352139,0.6773175932369428,0.6850881181243598,0.7267633769004505,0.781094782093293,0.8425834889869888,0.8842854033182117,0.9087520960948889,0.9168933786588902,0.9143841143732512,0.9031031130466813,0.9023996960766054,0.9023496962782771,0.8979823731598617,0.8948629304468587,0.8908039215081953,0.8893310925233349,0.8817814933071892,0.8751523140871968,0.8755071565420829,0.8811677545345471,0.8757396157242356,0.8599878504527056,0.846651670427409,0.8627144461577829,0.8779121883816103,0.85949033480863,0.791214050659786,0.7272124541496967,0.6508235971181209,0.566486733652336,0.477400932652829,0.3953613062765553,0.3110303898123299,0.2217298931066234,0.13659510038095912,0.05677210320291737,0.010730838293915967,0.06656926888264691,0.1473127299296484,0.23216851288626206,0.3215306348684108,0.40968586065128565,0.48958822143433234,0.5769933562234555,0.6660764287314906,0.7477218222850064,0.8318013738958829,0.9015864616436591,0.896686028909137,0.8724630366529074,0.856745597429611,0.8450386330356683,0.8217705976696472,0.7839483962446552,0.7427130763045824,0.6920337241494494,0.6613727674806587,0.65564260092814,0.6911501069461188,0.7407926052530289,0.8006064155421815,0.849060278150702,0.8773940468415853,0.8889252969676009,0.8891682928484641,0.8808229656082889,0.8768568243082233,0.8768236737749813,0.8768236737749813,0.8768236737749813,0.8768236737749813,0.8768236737749813,0.8768236737749813,0.8768236737749813,0.8768140761823682,0.8739190813694979,0.856960071379193,0.8665677843813924,0.8795106393880177,0.8789345650977476,0.8242008586985985,0.7449952208979616,0.6613177163173634,0.575693405463177,0.4948538195112737,0.40595701014779184,0.3202017627597378,0.23939259968547888,0.15054338999556172,0.06637235371114714,0.0,0.025301688432905145,0.11171456361921694,0.20016656412935707,0.28017727657216795,0.36717620726034284,0.4565816809306218,0.5455140082245644,0.6264042989725429,0.7120290930015938,0.7973288156453966,0.8763711292744911,0.9169005572788536,0.9306372483459973,0.9652694586491621,0.9874338133435077,0.9400777717382216,0.8569278954349084,0.7847968230153872,0.7028573365261983,0.6219031997268392,0.5363925421997962,0.4528112102680524,0.4587498755592232,0.5442360510226363,0.6288153928992701,0.7104802320743395,0.7930800782222309,0.8681982112692486,0.9149470342769119,0.9177141129623381,0.9075866551598686,0.8995418173985728,0.9063375315223119,0.9075125865858198,0.9075143701292292,0.9075143701292292,0.9075143701292292,0.9075143701292292,0.9075143701292292,0.9075143701292292,0.9075202476115816,0.9095443550405935,0.9190530944476307,0.9203001485857298,0.9202263926011736,0.9148192021054438,0.8950669523922887,0.8503725412995269,0.7977045643319844,0.7415830560078411,0.7010119547271063,0.7103596045705245,0.753754763050666,0.7991161603429082,0.8380383906652635,0.8698819704635017,0.8923664322565259,0.9027770369949739,0.9196552109926535,0.9574550082874602,0.9880112229946649,0.9481742879969672,0.871242325101665,0.787216402355724,0.7064996153749077,0.6177143408454366,0.5434783726284624,0.5793668247567452,0.6658297443769039,0.7451551148102278,0.8239786711009305,0.8931285469929209,0.9188512209546962,0.9071699883646425,0.8927145364219131,0.8976792820064368,0.9130412804100525,0.9156092818587485,0.9202264385535239,0.920302160276832,0.9203155967918917,0.923107430285351,0.932270268310931,0.9330892649886169,0.9330899504244352,0.9331027495525774,0.9358482386987854,0.9467208309312529,0.9565019319782977,0.9491664043735069,0.9430846548301595,0.91548731018897,0.8688380324752776,0.8105726368923805,0.7565982951958787,0.7166171025008401,0.7325348586626814,0.7765399245813616,0.8212140148566902,0.8615266261647354,0.8873817764377152,0.908505289712976,0.9274753324097997,0.9462433280468063,0.9754112667655941,0.9999999999999998,0.9544816200724349,0.8770336985102556,0.7943124498172456,0.711432496615803,0.6224703872480721,0.5649100707098926,0.6250410582764798,0.7089204596575438,0.7903312256582808,0.8683513260047875,0.9265204531914824,0.9439709690478073,0.923379026431469,0.9038058349819946,0.9044596658129762,0.9182396651020268,0.9098574565668216,0.9075220680999363,0.9075143701292292,MI
0.5456766698572544,0.5731753742905408,0.5968232485610876,0.6524489098046935,0.7276427265236878,0.7995747112220457,0.8121727822230174,0.7463339966098654,0.6669766068519116,0.5828635238666611,0.501707193835236,0.4477376131583406,0.4269635468212105,0.39307649377416887,0.35201301543912233,0.2888753064699028,0.2142391637058999,0.13836729454176844,0.0649785117164523,0.04029719151272804,0.10242994447133391,0.180661722868103,0.2596423864329821,0.3338651823434131,0.3690825852793276,0.37262636361011015,0.39007067911983095,0.4307904829194955,0.49122553143137604,0.5549038455006567,0.6196413094511468,0.6776296755463691,0.6753384453221631,0.6396977374426971,0.6192563122188166,0.6109065317048676,0.6102984043217317,0.602151290755111,0.5930764730511389,0.6046954313683177,0.6304871663046869,0.6592680137256695,0.7222689939998179,0.7980404039377467,0.8723062705886808,0.8953490223315779,0.8287760776464006,0.7474070689865853,0.6681815017423893,0.5847995915611679,0.5058459353118012,0.42319144200908543,0.33932997164451106,0.26129318454817396,0.18751969082640618,0.1213419426275415,0.07444808615717424,0.11423190486009538,0.19008923466104377,0.2719978773289774,0.34590190136466514,0.36699604970404054,0.34972228091696933,0.349212530890908,0.3844593290942693,0.44524870659414706,0.5102406590033925,0.5756632027709221,0.6383309701908573,0.6609326718357738,0.6280287339860964,0.6057424398797178,0.602794991630458,0.6000710609203319,0.5800736519271295,0.5492093867659391,0.538009581639944,0.554999501655443,0.5773327302594349,0.6370492390711779,0.7118913248014467,0.7813374154959793,0.7744069330741881,0.6983407595336613,0.6190162220912112,0.5356499837222761,0.4567813466293007,0.37438064240940006,0.2953198335549647,0.21807848969137245,0.1426677810661643,0.06129757491939736,0.0,0.024842731690146835,0.09857176445783367,0.17625054804364038,0.2531413353338836,0.312307981723424,0.31489262015608177,0.3090883612728861,0.33677384568455637,0.3887176723829262,0.45413218598269234,0.5152769356125964,0.5764600405752647,0.6331140702883811,0.6313462959238505,0.5985354244439425,0.5935855840560671,0.6136476195183715,0.6304430723345504,0.629067020940854,0.6145545439814437,0.6186572559536905,0.6409312607446587,0.662053198334849,0.7211100708780218,0.7995591500818369,0.8743450702531803,0.897292802799672,0.8270352394262468,0.7483053038512157,0.6657920673254001,0.5867340122123301,0.5045746004945808,0.4250563161889398,0.3448683657571341,0.267867734810583,0.21368191131506953,0.2548331632930001,0.33374387053301335,0.4172300348502198,0.4960876267463683,0.5787488945568082,0.6588589109791851,0.7399560691844709,0.8218396341370922,0.9009142389399589,0.9767610160137348,1.0,0.9389295761702672,0.8611923689791949,0.7852401073943198,0.7120264467477164,0.6747686579311059,0.6562635014253466,0.6428159214680671,0.649845633046847,0.659181600739096,0.6497462792437532,0.6283260302798055,0.6203530939894868,0.6492936656493642,0.6756281708561165,0.6452341109637298,0.5823651308875932,0.5121882846307719,0.44568729304804955,0.38612323382437963,0.3469947016055501,0.3446369375208391,0.36466448270397755,0.3421248805054755,0.27360370857029936,0.19710826188827435,0.15000850542917943,0.1989106693289049,0.27447335994980226,0.35745618537115775,0.4418213354205687,0.5244826257111905,0.6033921358647769,0.6845684820865883,0.7635473004295383,0.8394939219613557,0.8715849350112157,0.8177597232798435,0.7385961330676898,0.6622848150546798,0.6033035330817071,0.5805828051003117,0.5693453751075821,0.5833106662435623,0.6130626796246965,0.6319300512720833,0.6341452402323757,0.6311768711459804,0.6491841003742953,0.6858303156649457,0.6890594149763778,0.6392165284450679,0.5753013479026317,0.5080125358217309,0.44066989132516876,0.38951205828730795,0.37989787823156007,0.39924010320045555,0.4020669199066391,0.3407769247534431,0.2646982919501166,0.2118009287791014,0.25654176783768246,0.3320927505243185,0.4106609972592292,0.48364918762033304,0.5558507543505742,0.6246105371033319,0.7060874765604785,0.785502598818143,0.8674295102102765,0.9495149729003602,0.9969689239823016,0.963252282253352,0.8930684011128738,0.8172280683323792,0.7401216697491289,0.6776381910095477,0.6553748882749875,0.6308221027691552,0.6227895107328665,0.6353897909761306,0.6376159756098994,0.6394714006356725,0.6492390765254274,0.6714769263485358,0.7109260056959505,0.7105798746956433,0.6594402262540358,0.5950548066332617,0.5307713258348854,0.4653508492896863,0.41941718486836566,0.40270235273383004,0.4068102425720481,0.38542697146922444,0.3144914625133506,0.23649527171843432,0.16284275865320108,0.15811479419519225,0.2285599338355182,0.3063555316560793,0.38487222893324824,0.45647505064641436,0.5307050042857724,0.6112243963605544,0.6915105733283178,0.7717640752701302,0.8513581500864136,0.9070012801342731,0.8763446086676214,0.8050065423315622,0.7297807859002432,0.6580857538282436,0.6166721111795304,0.5857692510437182,MI
0.5392057244310511,0.5521018374081346,0.6004963448139524,0.6899733261054186,0.7805265634002707,0.8632593364147929,0.8524776301540624,0.7654338806736962,0.6751721411497258,0.5890724760670343,0.5074865559190289,0.43422391346061096,0.3775557010952968,0.32037069968501264,0.256413497407151,0.19545289096617524,0.13223051986051249,0.07686464855615127,0.06817216902656908,0.11744711677663311,0.18854828392398493,0.26251459935372545,0.34265193651127035,0.4195894704743508,0.47725923212055954,0.501110002225936,0.4796624954108939,0.4370642515887053,0.4485511901007664,0.49035273849402605,0.5239991978976206,0.5378245296601376,0.5511085372027165,0.5891685421250039,0.6686490952887929,0.7562042079580926,0.8442666020645897,0.8836071085215444,0.8235667597743304,0.7411907289629502,0.6521665057551924,0.5647007064179779,0.48543390461489033,0.4283526386958654,0.3753484786475454,0.31398459317597016,0.2520048725705879,0.1882716520639216,0.13237441055809707,0.11004585996842331,0.1485250309960393,0.21521999613394893,0.2902019432016514,0.3723633706528202,0.44723312624860356,0.5092050033561986,0.5404940509023068,0.5200520476959465,0.4684139296534313,0.4196401410956918,0.43629723766261974,0.48218761401890853,0.5028259367403318,0.49357750860261684,0.48985906247360655,0.5188093763644757,0.5949198533467437,0.6805203659204622,0.752472775303169,0.7112723264931182,0.6156843060134791,0.5285218472426061,0.4465101783223213,0.37731864579187646,0.31835612887615894,0.2610022488210739,0.20484746288252342,0.1414933290258169,0.0786446902086837,0.021902125487316182,0.0,0.041522858923145556,0.11297411905037613,0.19078115061931222,0.2663929962332716,0.33603471533381524,0.38521124182056377,0.3926252360344973,0.3647636625211421,0.31738516147224005,0.3118337361156591,0.37022554973081334,0.4137966426794366,0.44453170374740636,0.46330785854909595,0.490250205733338,0.5312520251233062,0.6129520101709958,0.7042202377075995,0.7921499962558378,0.8138981859394516,0.7332623187662157,0.6441901021089753,0.5578191022258856,0.4787763076224758,0.4079699732165132,0.3555988486600288,0.2994993907141732,0.23588022304040956,0.17137594235023723,0.10718901622581667,0.055661904758718794,0.06719737675588311,0.13100056167171448,0.20613519105516942,0.28422507890358006,0.36249963093940063,0.44113093859768204,0.5043665108657895,0.5304678273442691,0.5156111604943363,0.46876133194550373,0.47177719657712536,0.5240198425700062,0.5685855299709224,0.6052320988810844,0.6015879564060567,0.5597990415628673,0.5184132070368066,0.5361712231218603,0.5622807043203677,0.5538017653903813,0.5165469377227929,0.44763778395560694,0.3739362159685269,0.2969250780185959,0.21761818349927253,0.13952726737322707,0.08950440706727858,0.12602552503757614,0.19174695826299848,0.25700824667657307,0.3177582215842669,0.3765500907385515,0.4305826664528094,0.4944870692337324,0.5801798476297229,0.6678623272333264,0.7587117123665073,0.8492709715515263,0.9324040893317205,0.9472139919233447,0.8687952959236809,0.7757719712973665,0.686929068563314,0.6034312410269715,0.5484330517250746,0.5050174333770301,0.4846458354981775,0.4579153896473249,0.42202211636197373,0.37420842232212714,0.37153104089882216,0.41285882141041763,0.4286523396871804,0.4169501492447747,0.3694986220060019,0.30210101036365544,0.2243355901359423,0.14469410193977872,0.07492233179737973,0.044969471216853574,0.09259821081283137,0.15333628276919908,0.2164040940032339,0.2769101043244928,0.3319538045703938,0.391945139568771,0.4618430842903609,0.54224950181918,0.6285051817629326,0.7189599329331784,0.810058453732468,0.8788747471297118,0.8526920331852621,0.7708451658385422,0.6826873524423933,0.5984953939733175,0.5415494816561159,0.5291451347646161,0.5397847025674489,0.5321168575186073,0.49332711280638053,0.47358945763888616,0.5218586577327751,0.5612204547350073,0.5725243310637294,0.5453536460735375,0.48907596595875336,0.4119496000007856,0.33561372523232746,0.25881470303519016,0.18982025666596547,0.15312319477337977,0.19406152763569828,0.25750274307778365,0.32259358433657126,0.37995415373638686,0.4376028991816261,0.49176760269549225,0.5628516429825647,0.6467481630704304,0.7370480773500374,0.8346190293152829,0.9256698647305373,1.0000000000000002,0.9875409265314834,0.9076563777869,0.8183809697959299,0.7268006079823894,0.6395371165141432,0.5924953334035921,0.5703595762179652,0.5535707095409481,0.5204230976882724,0.4853276365398733,0.494301719919223,0.5266428421223182,0.5277507279365203,0.4991900926880246,0.4343233343787589,0.35951902555634363,0.28392811119796946,0.2088573746901452,0.1378874865972035,0.10922299441808136,0.15501967441022835,0.22233060431096785,0.28461769812539917,0.34586668307490664,0.4044276561721676,0.4602181284116098,0.5305181790078224,0.6195396508444324,0.7101179979624146,0.8005134138299865,0.8908533287213911,0.9745859775300902,0.9912619186729004,0.9172406671344902,0.8235614886823261,0.7335261888295073,0.6574463869305329,0.6053964923355746,0.5746350575494601,MI
0.0,0.050263830238642004,0.1148125310592909,0.1772553729454629,0.24222353499930582,0.3056785596336602,0.3086743730936201,0.2841893945883789,0.3114408689361885,0.36769517269951124,0.42878116772718866,0.49408995566917047,0.5618902568811943,0.6198069678918905,0.6659806522429299,0.7004073465630707,0.711109995996851,0.7113543175410306,0.7085091096558813,0.6931241759113302,0.6805469934452035,0.6851949183197537,0.6880029110354857,0.6825303592912555,0.6671210698878971,0.65469042782792,0.6562525629035705,0.6711226359370503,0.6709072831267271,0.6701518761418719,0.6472019602359804,0.6338193494345912,0.6412246940835065,0.6750667786467599,0.688563335034948,0.6964514997016027,0.6745670407388384,0.6181324825419274,0.58263620508419,0.6222784024254362,0.6910196156118189,0.7659247235622033,0.7800808068408653,0.710561229343136,0.6414733811351212,0.5906724785782778,0.5620422109286496,0.5316804224432887,0.5148484125818611,0.4744686121708048,0.4277896481644161,0.3833595407887187,0.3349226459401349,0.28339164689153984,0.2270296070381843,0.1694868762255326,0.11597476619880487,0.06534676834843234,0.03140989486852552,0.04626660504552693,0.09779086294348249,0.15707185016423586,0.22216718990725925,0.2868851253084299,0.351629332333246,0.4213557536806789,0.48693089362769504,0.5473064912772516,0.6028800949981186,0.6496336212002614,0.6744052493638668,0.670274891306095,0.6575830857333391,0.6502992048271032,0.6410622235381751,0.6276738204003685,0.6199257056406036,0.6295907045159197,0.6419777430995297,0.6482588794292092,0.6464792019132699,0.6530239740488941,0.6599780903724681,0.6825623419369911,0.682673112737612,0.6667514520419568,0.6781453381512068,0.7170114713818976,0.7326330456102921,0.7241033177923175,0.6956548468141508,0.6336044127597826,0.5939017983346462,0.6308874246340836,0.7016642986154673,0.748380692222901,0.7019236155665471,0.6314903908210536,0.583528003821868,0.5628229571434711,0.5301667807033785,0.4995183499118414,0.45816774661889004,0.4119684106910162,0.36697564891321566,0.3188502606155732,0.2658050709942481,0.21180197127941813,0.15961966401820749,0.10739537528876375,0.05282804114430606,0.015033960200799612,0.019947125776835994,0.07306311865227633,0.1363998288409849,0.19826084039584657,0.2628101443588209,0.32795851341187476,0.3945594698661754,0.4569036803070403,0.5254969591641889,0.586060937004298,0.6398392661828094,0.6774753360089207,0.6878218117445056,0.6920972519040285,0.7045085406501992,0.7328221932306971,0.7396743059962125,0.7280580949467279,0.725160758416213,0.7138101627576423,0.6874270666460041,0.6370999707320961,0.5753764021014083,0.5137371761748828,0.45220625913003043,0.3884304811709791,0.32195206910700236,0.2570472652100113,0.191251270407236,0.12391103007575976,0.06730324282758815,0.0683351010741482,0.11489744468547847,0.172171492856388,0.2252383068042294,0.27916769553286636,0.3299900647073559,0.38004535658787697,0.4257386885830172,0.46920379504766263,0.51303582148991,0.5489774333177087,0.5792502145049376,0.6046069364345725,0.6392463529019505,0.7049462412582439,0.776008959471447,0.853258502602839,0.9329560338022327,0.9921965248555356,0.978077927728277,0.9106359942068625,0.8333347094421597,0.761478549062234,0.7129214897989156,0.7468608961558714,0.7593640351156872,0.7701905617995866,0.7626586621920628,0.74012441835519,0.7097412373781917,0.7128900729324468,0.714691216163392,0.7014368894696268,0.6884569386516259,0.6813766305000573,0.6805035474630299,0.6723252655844543,0.6648909787932988,0.6547726997370156,0.6642496891520278,0.6731162597395197,0.6843588406944856,0.6948829784215691,0.710071007206784,0.7142019500387409,0.6991907228548853,0.6609576680220393,0.6105922914056809,0.5493645424061244,0.48334418970766513,0.42006680473821634,0.3568095305105048,0.29201203566509526,0.22716574442379822,0.16272102809527045,0.10084135790593995,0.06966833214223733,0.10472987642382847,0.15436008895844422,0.21480186661388068,0.2731499704777962,0.3253686161791143,0.37418632282425746,0.4223428835117946,0.4686108696558251,0.5130543525128444,0.5506245354316051,0.5694947190783628,0.5982193666155806,0.6315483200697267,0.6922804494547863,0.763296506968836,0.8350486864127331,0.9087642455148595,0.9781114712816572,1.0000000000000002,0.9441377736504448,0.8723538445795531,0.794726892401094,0.7246042257593277,0.7185174628164164,0.7438374006697368,0.7300325790308178,0.7207271986505901,0.7050076940214438,0.6723386381473455,0.6764356979717958,0.7026116911828748,0.7119114052983442,0.7046488004182219,0.6972617350801718,0.6843458078729225,0.6928156124167428,0.7108832681333832,0.7159624216857161,0.7160201646302882,0.716270487390646,0.7261438506789168,0.7468291084674556,0.7491413336560468,0.7465826564483733,0.7456418255553621,0.7407367306641583,0.7131876440040836,0.6704260226745016,0.6126254665186179,0.5513921729027913,0.49566506757110074,0.48195720541310805,0.4396699179600432,0.37739628578911133,0.3245685871253092,MI
0.6903459709075972,0.6542209582531604,0.6053028009146773,0.5470263984441945,0.502504431918573,0.4678968537115098,0.4235969858061672,0.37360229456115013,0.3229032189314798,0.31264816158187014,0.3745991692792312,0.4535466534401531,0.5345321137995382,0.616826388110556,0.6862713086682475,0.7070542290915001,0.694894127823418,0.7038499832023946,0.7168914756035731,0.7194296154779412,0.6835462942196278,0.657502076840389,0.6968588545801071,0.7430625382209326,0.7664978787209134,0.7458236643536478,0.6674234318734136,0.5716726099682696,0.4712064942714598,0.3738587386982186,0.2694930274159488,0.16840414457802244,0.0736361426934855,0.033984857586259576,0.10590781118803427,0.19738761282728112,0.28209147119808686,0.367606977926066,0.4652282320641048,0.5702293025374781,0.6720433862324942,0.7701918721723577,0.8657305086195801,0.8619458355323906,0.7854604258771074,0.7339086035554507,0.6929276081645528,0.6535131638753449,0.6025880258304854,0.5450490729225359,0.47231805367811774,0.40284764341208845,0.34276976382145796,0.3452252950892407,0.4093531885375863,0.4890070436795453,0.5761903417752887,0.6516763416843208,0.6977847997807303,0.7013988028902487,0.6991064691310878,0.7069229557324432,0.7157058112002088,0.6922723233188521,0.655233253411097,0.6665096649826807,0.7171774284188357,0.7554006897793728,0.7549740112281111,0.6934936353821779,0.6003917484260375,0.5007693687928516,0.4032885403682809,0.29870593344311636,0.19476206904601856,0.09778035662430384,0.006736993111373213,0.0,0.08663311007946328,0.1909611430143794,0.28906341199476815,0.39098445437540397,0.49629459380879215,0.6006014276725284,0.6978683150453264,0.8000941695160688,0.878281592547711,0.8395121610639238,0.7726557469571962,0.7199432676009767,0.6842569452559555,0.6454660615511671,0.5944653704537424,0.534276707373885,0.4620299662192764,0.39050617048117187,0.3316955618804147,0.32118478148514695,0.3817536574913578,0.4606285997054267,0.5466706599102389,0.6283354942437482,0.6915613591667409,0.7086558636188607,0.7043476089605638,0.7161062915771181,0.7268434807704875,0.7140734159589042,0.6718891568500496,0.6635045475608987,0.711338672608514,0.7518712318495016,0.7629321292912177,0.7260172603981381,0.6291196684922182,0.5396299599263457,0.45286887547122734,0.35713029289994425,0.2606059645951233,0.16019411862019184,0.06556034801495025,0.020957530997730123,0.09366791171767996,0.1903719322226165,0.2946049284902441,0.3970025040254912,0.49475997101214486,0.5994983266363612,0.7048460719582561,0.8100114996801624,0.8904264012819614,0.8485244461381807,0.7730314666128877,0.7203271601048875,0.6870894078808938,0.6469866333068797,0.5988273063782767,0.5827822985803082,0.6367431794879805,0.6826075720162754,0.7219381541320542,0.757508335615559,0.8203346640252287,0.9042632752265247,0.9859372582059385,0.9869505557697769,0.8997163753564064,0.8018850012274248,0.7002848466995715,0.5950236022813362,0.49340791592179123,0.4203550720050293,0.46792711631229933,0.5665045507669193,0.6631381695689784,0.7527479578843725,0.8000776621734316,0.7934072461889106,0.7651760052165777,0.7190941003192062,0.7081138556222122,0.7490731586200723,0.7613539756489607,0.7487863860347119,0.7350115213620272,0.7444489817933866,0.7412399691379821,0.6980151881223793,0.6232993087328877,0.5429607950654198,0.4614304947562906,0.38766549452253973,0.3838593319967236,0.44719964532705614,0.5182836279783909,0.5860201838377608,0.6416781025106604,0.6897182744444113,0.7242226684201609,0.7662912484517872,0.8360671419186148,0.9221329375957594,0.996019981795601,0.9716597846447284,0.8808884920645894,0.7808441769756127,0.6833292399565598,0.5964860855150724,0.49812270455784047,0.4102016000592006,0.44415375204005936,0.5397918222174038,0.6376840184133286,0.7330625414451861,0.7915903032063514,0.7943211420193277,0.767346913660816,0.7211291909465094,0.7058703944954796,0.7394881140872409,0.7491768533957215,0.7366046255584373,0.7312203655606946,0.7361775687799466,0.713802010814194,0.6506972975132694,0.5702157956267506,0.48966416842436744,0.4120961950299973,0.38674417038677134,0.44507481483819333,0.5126070951336734,0.5818700542481043,0.6415603746784879,0.6895070833629298,0.7285249060185948,0.7685957974259556,0.8282567877461677,0.9117462416129933,0.9941744298629709,0.9999999999999998,0.9181235346428129,0.8166689408642187,0.7186764434416233,0.6166439291927557,0.5125458634621749,0.46083983694633623,0.5320307354350342,0.6304357417779178,0.727008563525567,0.7978475679902324,0.8089581380892397,0.7920678635153637,0.7555147786521921,0.7113659989337044,0.7179806733578138,0.7515597679523609,0.759650647959915,0.7439968622034965,0.7365803578055898,0.7438831912436965,0.7417610829233741,0.6910545157481685,0.6204227489077541,0.5392830602693803,0.45914880307240513,0.38121558666683275,0.37245840529870633,0.4364983981710693,0.5045879500961512,0.5609394522434619,0.5996014756766967,0.6526335348212882,0.6957493401287502,0.7279180236419562,MI
0.17462748021088448,0.24132102103037256,0.30476195262899697,0.37177280883980446,0.4434210702331278,0.4987338954824755,0.548312549036688,0.5782317411033363,0.5569289242263351,0.5542859680177253,0.6182155481439194,0.6915909619177043,0.7641110248994749,0.8330676283482579,0.8821886204327127,0.8427361920024135,0.781543635791081,0.7433017678445968,0.7178081260203701,0.6732477553320657,0.6295676278140677,0.6086054540271584,0.6072743159659063,0.6187658307948338,0.6095686882728873,0.6132566843384178,0.6335088975366955,0.637941465071708,0.627531168324102,0.6399892919471265,0.6511669243022626,0.6282056030715234,0.574752129431867,0.5121802112643805,0.44226342111054895,0.37214207493300644,0.3011257816961229,0.2290125143951216,0.1596364300055681,0.08659489422561084,0.016571531849467358,0.0,0.05900404832240619,0.13117799000529584,0.20040019905262785,0.2731736891744224,0.34656707077105575,0.4169675440621138,0.4864026295588427,0.5513237054271314,0.6218546758090308,0.6910862548468955,0.7638656778982897,0.834593445108248,0.8973267620105685,0.8864035266355019,0.8228800619618342,0.7658061152837798,0.738890469530227,0.7109194841441451,0.6690153303061616,0.6417010815299907,0.6220949552664172,0.6069396364516273,0.5904927346931746,0.5831813800542527,0.6078896976253446,0.623182041965343,0.6184399423611919,0.6354424021535153,0.6446387622588006,0.6225557489408654,0.5645364918172485,0.4949203843339728,0.42527306642323126,0.3535366470574951,0.2890935723171404,0.22419203938062393,0.1549979305260361,0.08407844574039403,0.020311432248349193,0.019926913076954156,0.08544524480058235,0.1466968952442237,0.2003979353050379,0.2662186150222198,0.33945416164118447,0.4099318616265927,0.48070632777986,0.5541436566268432,0.6271100783517486,0.6964091990801387,0.7687349511230308,0.8416870049475165,0.9093025706726443,0.932960460475107,0.8770829949418479,0.8123139369892474,0.762491568270647,0.7474713834411617,0.7174059970202098,0.6752844100059825,0.6489639804640372,0.6269025558005725,0.6156598403503554,0.5951362303489428,0.5885776976289696,0.6106366991831356,0.6142578421820142,0.6277472787689651,0.6463302723902312,0.6333249598300645,0.5791199027218633,0.5076064817182855,0.43827073734256083,0.3679435497053982,0.2976822029346766,0.22797022389499544,0.15654234629890224,0.08597479135157188,0.01956878571707099,0.007716786918760321,0.06841224255732187,0.13877337117613597,0.20933042837113958,0.2827455372506582,0.3562583109875266,0.42977108472439474,0.5032820837530818,0.5761662859314771,0.6454218665484942,0.7178730715793573,0.7911511547984373,0.8604536692333427,0.901658560741831,0.857325029358486,0.7955434230991782,0.7565031943401155,0.7488739716603294,0.7137662600005081,0.6686590657559851,0.6480724226208551,0.6635555273323884,0.69546805163565,0.7424886555438137,0.7719138035197117,0.788130563545993,0.8418380287101153,0.9065126954695624,0.9603513883561041,0.9492029036483998,0.8825975816338365,0.8128497384231745,0.7402727711146253,0.6710373568752825,0.5986033408531003,0.5297371901362475,0.4636182906072932,0.3946801411117449,0.32263906380566854,0.2733080293617939,0.31564725017510864,0.38604141358808075,0.4561833400258718,0.5267935452534986,0.5945895492139723,0.6467117286823727,0.6638531328513245,0.6562122714529471,0.6360688318554334,0.630136938704836,0.6096285993597487,0.6132038415446066,0.6334815559791809,0.6487657706006942,0.6710583634491223,0.701441610401806,0.7444696208692263,0.7687413561444987,0.787958760660898,0.8484009654986209,0.916124553461946,0.9774987600624383,1.0,0.9534661356734588,0.892673497490245,0.8206343229087101,0.7471276905325399,0.6736149167956731,0.6001022871015731,0.5268198323452961,0.45698176101115284,0.3854887949890804,0.3120876735747593,0.25196071301709344,0.2790989440713507,0.3499244341357608,0.41927175756027857,0.4910912731018928,0.5595370362807643,0.6219111732486282,0.6566469376399277,0.6638902291731763,0.64601300953195,0.6420301805007105,0.6405618297504885,0.6164894524296013,0.6037754807493347,0.6225768942866378,0.6331206176627059,0.6534113514233322,0.6715389272448689,0.7103507759925927,0.7471509162592236,0.7658870927639281,0.8090903550198145,0.8733419020784581,0.9374452468563308,0.978279624159125,0.9408988162782153,0.8729449353314052,0.8022320708016182,0.7292709840027787,0.6599058433182816,0.5877156488049466,0.5142803975933635,0.44341299498205944,0.37302555320680886,0.3008303256678647,0.269667591803443,0.32602018696607404,0.39730263448547287,0.4671337966568929,0.540290205229026,0.6093647226325329,0.6553118675630761,0.670295132481772,0.6639613003338104,0.6486902515584143,0.6594879023676724,0.6537592941896738,0.6344157939619984,0.6302828849844887,0.6369613996516722,0.6259782313209471,0.6307816817580038,0.6500309424035621,0.6952303072857755,0.7364458934234033,0.7622900368283028,0.8083985126246125,0.8722173028203815,0.9301263946649019,0.9325551656434381,0.8766265055563109,MI
0.0,0.050263830238642004,0.1148125310592909,0.1772553729454629,0.24222353499930582,0.3056785596336602,0.3086743730936201,0.2841893945883789,0.3114408689361885,0.36769517269951124,0.42878116772718866,0.49408995566917047,0.5618902568811943,0.6198069678918905,0.6659806522429299,0.7004073465630707,0.711109995996851,0.7113543175410306,0.7085091096558813,0.6931241759113302,0.6805469934452035,0.6851949183197537,0.6880029110354857,0.6825303592912555,0.6671210698878971,0.65469042782792,0.6562525629035705,0.6711226359370503,0.6709072831267271,0.6701518761418719,0.6472019602359804,0.6338193494345912,0.6412246940835065,0.6750667786467599,0.688563335034948,0.6964514997016027,0.6745670407388384,0.6181324825419274,0.58263620508419,0.6222784024254362,0.6910196156118189,0.7659247235622033,0.7800808068408653,0.710561229343136,0.6414733811351212,0.5906724785782778,0.5620422109286496,0.5316804224432887,0.5148484125818611,0.4744686121708048,0.4277896481644161,0.3833595407887187,0.3349226459401349,0.28339164689153984,0.2270296070381843,0.1694868762255326,0.11597476619880487,0.06534676834843234,0.03140989486852552,0.04626660504552693,0.09779086294348249,0.15707185016423586,0.22216718990725925,0.2868851253084299,0.351629332333246,0.4213557536806789,0.48693089362769504,0.5473064912772516,0.6028800949981186,0.6496336212002614,0.6744052493638668,0.670274891306095,0.6575830857333391,0.6502992048271032,0.6410622235381751,0.6276738204003685,0.6199257056406036,0.6295907045159197,0.6419777430995297,0.6482588794292092,0.6464792019132699,0.6530239740488941,0.6599780903724681,0.6825623419369911,0.682673112737612,0.6667514520419568,0.6781453381512068,0.7170114713818976,0.7326330456102921,0.7241033177923175,0.6956548468141508,0.6336044127597826,0.5939017983346462,0.6308874246340836,0.7016642986154673,0.748380692222901,0.7019236155665471,0.6314903908210536,0.583528003821868,0.5628229571434711,0.5301667807033785,0.4995183499118414,0.45816774661889004,0.4119684106910162,0.36697564891321566,0.3188502606155732,0.2658050709942481,0.21180197127941813,0.15961966401820749,0.10739537528876375,0.05282804114430606,0.015033960200799612,0.019947125776835994,0.07306311865227633,0.1363998288409849,0.19826084039584657,0.2628101443588209,0.32795851341187476,0.3945594698661754,0.4569036803070403,0.5254969591641889,0.586060937004298,0.6398392661828094,0.6774753360089207,0.6878218117445056,0.6920972519040285,0.7045085406501992,0.7328221932306971,0.7396743059962125,0.7280580949467279,0.725160758416213,0.7138101627576423,0.6874270666460041,0.6370999707320961,0.5753764021014083,0.5137371761748828,0.45220625913003043,0.3884304811709791,0.32195206910700236,0.2570472652100113,0.191251270407236,0.12391103007575976,0.06730324282758815,0.0683351010741482,0.11489744468547847,0.172171492856388,0.2252383068042294,0.27916769553286636,0.3299900647073559,0.38004535658787697,0.4257386885830172,0.46920379504766263,0.51303582148991,0.5489774333177087,0.5792502145049376,0.6046069364345725,0.6392463529019505,0.7049462412582439,0.776008959471447,0.853258502602839,0.9329560338022327,0.9921965248555356,0.978077927728277,0.9106359942068625,0.8333347094421597,0.761478549062234,0.7129214897989156,0.7468608961558714,0.7593640351156872,0.7701905617995866,0.7626586621920628,0.74012441835519,0.7097412373781917,0.7128900729324468,0.714691216163392,0.7014368894696268,0.6884569386516259,0.6813766305000573,0.6805035474630299,0.6723252655844543,0.6648909787932988,0.6547726997370156,0.6642496891520278,0.6731162597395197,0.6843588406944856,0.6948829784215691,0.710071007206784,0.7142019500387409,0.6991907228548853,0.6609576680220393,0.6105922914056809,0.5493645424061244,0.48334418970766513,0.42006680473821634,0.3568095305105048,0.29201203566509526,0.22716574442379822,0.16272102809527045,0.10084135790593995,0.06966833214223733,0.10472987642382847,0.15436008895844422,0.21480186661388068,0.2731499704777962,0.3253686161791143,0.37418632282425746,0.4223428835117946,0.4686108696558251,0.5130543525128444,0.5506245354316051,0.5694947190783628,0.5982193666155806,0.6315483200697267,0.6922804494547863,0.763296506968836,0.8350486864127331,0.9087642455148595,0.9781114712816572,1.0000000000000002,0.9441377736504448,0.8723538445795531,0.794726892401094,0.7246042257593277,0.7185174628164164,0.7438374006697368,0.7300325790308178,0.7207271986505901,0.7050076940214438,0.6723386381473455,0.6764356979717958,0.7026116911828748,0.7119114052983442,0.7046488004182219,0.6972617350801718,0.6843458078729225,0.6928156124167428,0.7108832681333832,0.7159624216857161,0.7160201646302882,0.716270487390646,0.7261438506789168,0.7468291084674556,0.7491413336560468,0.7465826564483733,0.7456418255553621,0.7407367306641583,0.7131876440040836,0.6704260226745016,0.6126254665186179,0.5513921729027913,0.49566506757110074,0.48195720541310805,0.4396699179600432,0.37739628578911133,0.3245685871253092,MI
0.511828345491691,0.5687997944604972,0.6254866184258658,0.6775801494790701,0.7278267370501508,0.7422498772735586,0.718159660660203,0.7089142423232728,0.7380374429249625,0.7797383021563868,0.770087204185413,0.6958774809403185,0.6061585728949621,0.5273045226529767,0.452630889289376,0.3713194819014003,0.28523283228125473,0.1998391530530903,0.16415639831646167,0.2314606915226296,0.3187750806485641,0.4090307356075973,0.5023910820600908,0.5916051073272872,0.6801842726362022,0.768983313532656,0.8500520610162143,0.9172153444523989,0.9221055957890969,0.863520003017171,0.8104736410025575,0.7724290756891705,0.7508459747077478,0.7241711521251863,0.712798589745836,0.7403286358901311,0.7762884416706228,0.7839995730181997,0.7622564520577055,0.755851979797409,0.7926741165494706,0.8265669319586342,0.8016300709082065,0.7206979021022601,0.6297328581995243,0.5384354495561059,0.45145356082645893,0.35883370035132534,0.2756623643321032,0.20423806503119768,0.17180546083040837,0.23571107994190132,0.3271106654149549,0.41685897231944,0.5050339667047723,0.5983138092781328,0.6918177424136924,0.7845079177479537,0.8695325866833556,0.9458084525070938,0.9696739646626593,0.913391288430468,0.8526473283212395,0.8040621003449806,0.7634908670802283,0.7232025736739394,0.6865022371245408,0.644722270770911,0.64198266284306,0.6772301562303269,0.686733294417827,0.643387268610744,0.5950013907190213,0.5710628776833133,0.6047338686537962,0.6426481306126406,0.6437051298857497,0.5765423939724632,0.502310453778561,0.42856147856948135,0.3377798435037749,0.24724863713325562,0.15976492701915535,0.06976164906581372,0.0,0.02470340925231307,0.11100630215797047,0.1981436086865871,0.291112985432745,0.38402400475491194,0.4710817703633028,0.5622730866397319,0.654888854183034,0.7410695746740845,0.8234414730330055,0.8801806740332612,0.8505498518881678,0.7912851208036908,0.7580787610203767,0.7398783523059187,0.710952322171789,0.6851900558121102,0.6968571375565114,0.7391893015158235,0.7698237065052853,0.7425420930696747,0.7260746205056314,0.7566728409090582,0.8052862556291156,0.8289081782232568,0.7767257999084323,0.6908593892543109,0.5991961727252324,0.5125419453096376,0.4206064817016322,0.333083332894097,0.244403897427397,0.19937357536632272,0.2583150093423088,0.34790317324643616,0.43476372752622683,0.5274779560118861,0.617701897293315,0.7054286086139807,0.7952911840302157,0.8780240785455844,0.9487897456058507,0.9514861278363402,0.8909509278679413,0.8353041873420843,0.790839562098711,0.7569303665186731,0.726777412244495,0.7209211890020781,0.7477846126047134,0.7902107816450317,0.8236096039509861,0.8485233625870949,0.8296378434675966,0.785335765181695,0.7516875182396563,0.7516585005928735,0.7838640137632396,0.817915386444831,0.8630633026969439,0.9203803504764114,0.9833137819522744,0.9906988691913905,0.9365776026211079,0.8603795718304037,0.7748378959894415,0.6874686093838243,0.5972749306862932,0.5040974397027198,0.4387419800009573,0.4925182747883421,0.5829609625007861,0.6700901318684132,0.7629435363546084,0.8444037835148872,0.8605453956843132,0.8358504104613955,0.7879543766096129,0.7578759481702131,0.7870560946897909,0.8046855022100847,0.770295239684722,0.7273238671286382,0.7204293333643959,0.7493890081933712,0.7723913055682035,0.7937602023723791,0.8463495649157688,0.9075323242899238,0.9212157993223038,0.881280819863514,0.8051723066774887,0.7222489484558778,0.6311544730148329,0.5376675959797768,0.44416216165794764,0.3506670823419169,0.2633379717473936,0.2625840190955835,0.3452136174573608,0.4377467827140389,0.5246634101678576,0.6149903577078659,0.6885207381467497,0.6890095074074591,0.6583114031637747,0.6195695819126164,0.625729996344472,0.6743545835550866,0.7190993155713845,0.7225186723317583,0.6830524363868831,0.6687345267713218,0.7073282153974403,0.7427570485870649,0.7841729270807423,0.8228456914767932,0.8730354339800499,0.9351734802082161,0.9920930150063794,1.0,0.939549224817267,0.8569638307894363,0.7707521372674966,0.6840964048191323,0.591771567618282,0.504314160141085,0.4154015308740957,0.3821782690982807,0.4602072662261085,0.5514548335950527,0.638429523364856,0.7296994259938998,0.8140361185975691,0.8614667858237404,0.8517728462642806,0.8144257937416965,0.7892900385885198,0.8036659906499197,0.8184286511682004,0.8067597737187846,0.7685259396934621,0.7406864214672253,0.7569555762747378,0.7814188153609001,0.8062806736430466,0.8502833550885935,0.9110250085894516,0.9659854465062532,0.960458334937379,0.90601896857134,0.8285146639449144,0.738180033734601,0.6503818414271791,0.5602238778005675,0.46770437281878396,0.4211090745359123,0.49162824867323573,0.5825502461416263,0.6695327254716328,0.7572591471873564,0.8192461269272748,0.8195046791536689,0.7859508474220112,0.7489937202232537,0.7511667182918167,0.7714214356547642,0.7560203710511284,0.7105734587309847,0.6814553519260902,MI
0.5392057244310511,0.5521018374081346,0.6004963448139524,0.6899733261054186,0.7805265634002707,0.8632593364147929,0.8524776301540624,0.7654338806736962,0.6751721411497258,0.5890724760670343,0.5074865559190289,0.43422391346061096,0.3775557010952968,0.32037069968501264,0.256413497407151,0.19545289096617524,0.13223051986051249,0.07686464855615127,0.06817216902656908,0.11744711677663311,0.18854828392398493,0.26251459935372545,0.34265193651127035,0.4195894704743508,0.47725923212055954,0.501110002225936,0.4796624954108939,0.4370642515887053,0.4485511901007664,0.49035273849402605,0.5239991978976206,0.5378245296601376,0.5511085372027165,0.5891685421250039,0.6686490952887929,0.7562042079580926,0.8442666020645897,0.8836071085215444,0.8235667597743304,0.7411907289629502,0.6521665057551924,0.5647007064179779,0.48543390461489033,0.4283526386958654,0.3753484786475454,0.31398459317597016,0.2520048725705879,0.1882716520639216,0.13237441055809707,0.11004585996842331,0.1485250309960393,0.21521999613394893,0.2902019432016514,0.3723633706528202,0.44723312624860356,0.5092050033561986,0.5404940509023068,0.5200520476959465,0.4684139296534313,0.4196401410956918,0.43629723766261974,0.48218761401890853,0.5028259367403318,0.49357750860261684,0.48985906247360655,0.5188093763644757,0.5949198533467437,0.6805203659204622,0.752472775303169,0.7112723264931182,0.6156843060134791,0.5285218472426061,0.4465101783223213,0.37731864579187646,0.31835612887615894,0.2610022488210739,0.20484746288252342,0.1414933290258169,0.0786446902086837,0.021902125487316182,0.0,0.041522858923145556,0.11297411905037613,0.19078115061931222,0.2663929962332716,0.33603471533381524,0.38521124182056377,0.3926252360344973,0.3647636625211421,0.31738516147224005,0.3118337361156591,0.37022554973081334,0.4137966426794366,0.44453170374740636,0.46330785854909595,0.490250205733338,0.5312520251233062,0.6129520101709958,0.7042202377075995,0.7921499962558378,0.8138981859394516,0.7332623187662157,0.6441901021089753,0.5578191022258856,0.4787763076224758,0.4079699732165132,0.3555988486600288,0.2994993907141732,0.23588022304040956,0.17137594235023723,0.10718901622581667,0.055661904758718794,0.06719737675588311,0.13100056167171448,0.20613519105516942,0.28422507890358006,0.36249963093940063,0.44113093859768204,0.5043665108657895,0.5304678273442691,0.5156111604943363,0.46876133194550373,0.47177719657712536,0.5240198425700062,0.5685855299709224,0.6052320988810844,0.6015879564060567,0.5597990415628673,0.5184132070368066,0.5361712231218603,0.5622807043203677,0.5538017653903813,0.5165469377227929,0.44763778395560694,0.3739362159685269,0.2969250780185959,0.21761818349927253,0.13952726737322707,0.08950440706727858,0.12602552503757614,0.19174695826299848,0.25700824667657307,0.3177582215842669,0.3765500907385515,0.4305826664528094,0.4944870692337324,0.5801798476297229,0.6678623272333264,0.7587117123665073,0.8492709715515263,0.9324040893317205,0.9472139919233447,0.8687952959236809,0.7757719712973665,0.686929068563314,0.6034312410269715,0.5484330517250746,0.5050174333770301,0.4846458354981775,0.4579153896473249,0.42202211636197373,0.37420842232212714,0.37153104089882216,0.41285882141041763,0.4286523396871804,0.4169501492447747,0.3694986220060019,0.30210101036365544,0.2243355901359423,0.14469410193977872,0.07492233179737973,0.044969471216853574,0.09259821081283137,0.15333628276919908,0.2164040940032339,0.2769101043244928,0.3319538045703938,0.391945139568771,0.4618430842903609,0.54224950181918,0.6285051817629326,0.7189599329331784,0.810058453732468,0.8788747471297118,0.8526920331852621,0.7708451658385422,0.6826873524423933,0.5984953939733175,0.5415494816561159,0.5291451347646161,0.5397847025674489,0.5321168575186073,0.49332711280638053,0.47358945763888616,0.5218586577327751,0.5612204547350073,0.5725243310637294,0.5453536460735375,0.48907596595875336,0.4119496000007856,0.33561372523232746,0.25881470303519016,0.18982025666596547,0.15312319477337977,0.19406152763569828,0.25750274307778365,0.32259358433657126,0.37995415373638686,0.4376028991816261,0.49176760269549225,0.5628516429825647,0.6467481630704304,0.7370480773500374,0.8346190293152829,0.9256698647305373,1.0000000000000002,0.9875409265314834,0.9076563777869,0.8183809697959299,0.7268006079823894,0.6395371165141432,0.5924953334035921,0.5703595762179652,0.5535707095409481,0.5204230976882724,0.4853276365398733,0.494301719919223,0.5266428421223182,0.5277507279365203,0.4991900926880246,0.4343233343787589,0.35951902555634363,0.28392811119796946,0.2088573746901452,0.1378874865972035,0.10922299441808136,0.15501967441022835,0.22233060431096785,0.28461769812539917,0.34586668307490664,0.4044276561721676,0.4602181284116098,0.5305181790078224,0.6195396508444324,0.7101179979624146,0.8005134138299865,0.8908533287213911,0.9745859775300902,0.9912619186729004,0.9172406671344902,0.8235614886823261,0.7335261888295073,0.6574463869305329,0.6053964923355746,0.5746350575494601,MI
0.5456766698572544,0.5731753742905408,0.5968232485610876,0.6524489098046935,0.7276427265236878,0.7995747112220457,0.8121727822230174,0.7463339966098654,0.6669766068519116,0.5828635238666611,0.501707193835236,0.4477376131583406,0.4269635468212105,0.39307649377416887,0.35201301543912233,0.2888753064699028,0.2142391637058999,0.13836729454176844,0.0649785117164523,0.04029719151272804,0.10242994447133391,0.180661722868103,0.2596423864329821,0.3338651823434131,0.3690825852793276,0.37262636361011015,0.39007067911983095,0.4307904829194955,0.49122553143137604,0.5549038455006567,0.6196413094511468,0.6776296755463691,0.6753384453221631,0.6396977374426971,0.6192563122188166,0.6109065317048676,0.6102984043217317,0.602151290755111,0.5930764730511389,0.6046954313683177,0.6304871663046869,0.6592680137256695,0.7222689939998179,0.7980404039377467,0.8723062705886808,0.8953490223315779,0.8287760776464006,0.7474070689865853,0.6681815017423893,0.5847995915611679,0.5058459353118012,0.42319144200908543,0.33932997164451106,0.26129318454817396,0.18751969082640618,0.1213419426275415,0.07444808615717424,0.11423190486009538,0.19008923466104377,0.2719978773289774,0.34590190136466514,0.36699604970404054,0.34972228091696933,0.349212530890908,0.3844593290942693,0.44524870659414706,0.5102406590033925,0.5756632027709221,0.6383309701908573,0.6609326718357738,0.6280287339860964,0.6057424398797178,0.602794991630458,0.6000710609203319,0.5800736519271295,0.5492093867659391,0.538009581639944,0.554999501655443,0.5773327302594349,0.6370492390711779,0.7118913248014467,0.7813374154959793,0.7744069330741881,0.6983407595336613,0.6190162220912112,0.5356499837222761,0.4567813466293007,0.37438064240940006,0.2953198335549647,0.21807848969137245,0.1426677810661643,0.06129757491939736,0.0,0.024842731690146835,0.09857176445783367,0.17625054804364038,0.2531413353338836,0.312307981723424,0.31489262015608177,0.3090883612728861,0.33677384568455637,0.3887176723829262,0.45413218598269234,0.5152769356125964,0.5764600405752647,0.6331140702883811,0.6313462959238505,0.5985354244439425,0.5935855840560671,0.6136476195183715,0.6304430723345504,0.629067020940854,0.6145545439814437,0.6186572559536905,0.6409312607446587,0.662053198334849,0.7211100708780218,0.7995591500818369,0.8743450702531803,0.897292802799672,0.8270352394262468,0.7483053038512157,0.6657920673254001,0.5867340122123301,0.5045746004945808,0.4250563161889398,0.3448683657571341,0.267867734810583,0.21368191131506953,0.2548331632930001,0.33374387053301335,0.4172300348502198,0.4960876267463683,0.5787488945568082,0.6588589109791851,0.7399560691844709,0.8218396341370922,0.9009142389399589,0.9767610160137348,1.0,0.9389295761702672,0.8611923689791949,0.7852401073943198,0.7120264467477164,0.6747686579311059,0.6562635014253466,0.6428159214680671,0.649845633046847,0.659181600739096,0.6497462792437532,0.6283260302798055,0.6203530939894868,0.6492936656493642,0.6756281708561165,0.6452341109637298,0.5823651308875932,0.5121882846307719,0.44568729304804955,0.38612323382437963,0.3469947016055501,0.3446369375208391,0.36466448270397755,0.3421248805054755,0.27360370857029936,0.19710826188827435,0.15000850542917943,0.1989106693289049,0.27447335994980226,0.35745618537115775,0.4418213354205687,0.5244826257111905,0.6033921358647769,0.6845684820865883,0.7635473004295383,0.8394939219613557,0.8715849350112157,0.8177597232798435,0.7385961330676898,0.6622848150546798,0.6033035330817071,0.5805828051003117,0.5693453751075821,0.5833106662435623,0.6130626796246965,0.6319300512720833,0.6341452402323757,0.6311768711459804,0.6491841003742953,0.6858303156649457,0.6890594149763778,0.6392165284450679,0.5753013479026317,0.5080125358217309,0.44066989132516876,0.38951205828730795,0.37989787823156007,0.39924010320045555,0.4020669199066391,0.3407769247534431,0.2646982919501166,0.2118009287791014,0.25654176783768246,0.3320927505243185,0.4106609972592292,0.48364918762033304,0.5558507543505742,0.6246105371033319,0.7060874765604785,0.785502598818143,0.8674295102102765,0.9495149729003602,0.9969689239823016,0.963252282253352,0.8930684011128738,0.8172280683323792,0.7401216697491289,0.6776381910095477,0.6553748882749875,0.6308221027691552,0.6227895107328665,0.6353897909761306,0.6376159756098994,0.6394714006356725,0.6492390765254274,0.6714769263485358,0.7109260056959505,0.7105798746956433,0.6594402262540358,0.5950548066332617,0.5307713258348854,0.4653508492896863,0.41941718486836566,0.40270235273383004,0.4068102425720481,0.38542697146922444,0.3144914625133506,0.23649527171843432,0.16284275865320108,0.15811479419519225,0.2285599338355182,0.3063555316560793,0.38487222893324824,0.45647505064641436,0.5307050042857724,0.6112243963605544,0.6915105733283178,0.7717640752701302,0.8513581500864136,0.9070012801342731,0.8763446086676214,0.8050065423315622,0.7297807859002432,0.6580857538282436,0.6166721111795304,0.5857692510437182,MI
0.8768236737749813,0.8768237843349247,0.8772952119193176,0.8815176083273506,0.8638436170245398,0.8569390775262848,0.8761966448101968,0.8961964012260679,0.8723987227958083,0.7992068598023525,0.717703310088389,0.637022979064328,0.5488692856038981,0.4685346320688131,0.3820961165148422,0.2927045629411802,0.20552133285918361,0.1256434045918855,0.04830617879399601,0.05402708934255385,0.1340339243196298,0.20987418415705195,0.27830657681390436,0.35005111875682027,0.4255248472632591,0.5064250884017134,0.595388820641723,0.68322715336207,0.7630456790880593,0.8499289829589756,0.9180027463338722,0.9193709560141394,0.8989981036145982,0.8796722119407112,0.863298593855083,0.837462156306487,0.8010769190390656,0.7576409275222984,0.7107910521352139,0.6773175932369428,0.6850881181243598,0.7267633769004505,0.781094782093293,0.8425834889869888,0.8842854033182117,0.9087520960948889,0.9168933786588902,0.9143841143732512,0.9031031130466813,0.9023996960766054,0.9023496962782771,0.8979823731598617,0.8948629304468587,0.8908039215081953,0.8893310925233349,0.8817814933071892,0.8751523140871968,0.8755071565420829,0.8811677545345471,0.8757396157242356,0.8599878504527056,0.846651670427409,0.8627144461577829,0.8779121883816103,0.85949033480863,0.791214050659786,0.7272124541496967,0.6508235971181209,0.566486733652336,0.477400932652829,0.3953613062765553,0.3110303898123299,0.2217298931066234,0.13659510038095912,0.05677210320291737,0.010730838293915967,0.06656926888264691,0.1473127299296484,0.23216851288626206,0.3215306348684108,0.40968586065128565,0.48958822143433234,0.5769933562234555,0.6660764287314906,0.7477218222850064,0.8318013738958829,0.9015864616436591,0.896686028909137,0.8724630366529074,0.856745597429611,0.8450386330356683,0.8217705976696472,0.7839483962446552,0.7427130763045824,0.6920337241494494,0.6613727674806587,0.65564260092814,0.6911501069461188,0.7407926052530289,0.8006064155421815,0.849060278150702,0.8773940468415853,0.8889252969676009,0.8891682928484641,0.8808229656082889,0.8768568243082233,0.8768236737749813,0.8768236737749813,0.8768236737749813,0.8768236737749813,0.8768236737749813,0.8768236737749813,0.8768236737749813,0.8768140761823682,0.8739190813694979,0.856960071379193,0.8665677843813924,0.8795106393880177,0.8789345650977476,0.8242008586985985,0.7449952208979616,0.6613177163173634,0.575693405463177,0.4948538195112737,0.40595701014779184,0.3202017627597378,0.23939259968547888,0.15054338999556172,0.06637235371114714,0.0,0.025301688432905145,0.11171456361921694,0.20016656412935707,0.28017727657216795,0.36717620726034284,0.4565816809306218,0.5455140082245644,0.6264042989725429,0.7120290930015938,0.7973288156453966,0.8763711292744911,0.9169005572788536,0.9306372483459973,0.9652694586491621,0.9874338133435077,0.9400777717382216,0.8569278954349084,0.7847968230153872,0.7028573365261983,0.6219031997268392,0.5363925421997962,0.4528112102680524,0.4587498755592232,0.5442360510226363,0.6288153928992701,0.7104802320743395,0.7930800782222309,0.8681982112692486,0.9149470342769119,0.9177141129623381,0.9075866551598686,0.8995418173985728,0.9063375315223119,0.9075125865858198,0.9075143701292292,0.9075143701292292,0.9075143701292292,0.9075143701292292,0.9075143701292292,0.9075143701292292,0.9075202476115816,0.9095443550405935,0.9190530944476307,0.9203001485857298,0.9202263926011736,0.9148192021054438,0.8950669523922887,0.8503725412995269,0.7977045643319844,0.7415830560078411,0.7010119547271063,0.7103596045705245,0.753754763050666,0.7991161603429082,0.8380383906652635,0.8698819704635017,0.8923664322565259,0.9027770369949739,0.9196552109926535,0.9574550082874602,0.9880112229946649,0.9481742879969672,0.871242325101665,0.787216402355724,0.7064996153749077,0.6177143408454366,0.5434783726284624,0.5793668247567452,0.6658297443769039,0.7451551148102278,0.8239786711009305,0.8931285469929209,0.9188512209546962,0.9071699883646425,0.8927145364219131,0.8976792820064368,0.9130412804100525,0.9156092818587485,0.9202264385535239,0.920302160276832,0.9203155967918917,0.923107430285351,0.932270268310931,0.9330892649886169,0.9330899504244352,0.9331027495525774,0.9358482386987854,0.9467208309312529,0.9565019319782977,0.9491664043735069,0.9430846548301595,0.91548731018897,0.8688380324752776,0.8105726368923805,0.7565982951958787,0.7166171025008401,0.7325348586626814,0.7765399245813616,0.8212140148566902,0.8615266261647354,0.8873817764377152,0.908505289712976,0.9274753324097997,0.9462433280468063,0.9754112667655941,0.9999999999999998,0.9544816200724349,0.8770336985102556,0.7943124498172456,0.711432496615803,0.6224703872480721,0.5649100707098926,0.6250410582764798,0.7089204596575438,0.7903312256582808,0.8683513260047875,0.9265204531914824,0.9439709690478073,0.923379026431469,0.9038058349819946,0.9044596658129762,0.9182396651020268,0.9098574565668216,0.9075220680999363,0.9075143701292292,MI
0.3664407428133505,0.38145307599916567,0.41909156623208177,0.39679611793724234,0.3173882759309683,0.24894655249473496,0.22177844939828195,0.18548444570575406,0.14217986872813015,0.1536972115739481,0.23171284490630661,0.31039042857619026,0.3993729053856525,0.4937246170912004,0.5882301940348293,0.6855906540238184,0.7644516490052602,0.7329041765816902,0.6428645077536987,0.548628998776644,0.4560843256422171,0.384918014506745,0.33786500936114927,0.29140164605540875,0.23121022563996174,0.16424033517568914,0.09790166159297087,0.04667564042194616,0.06217533828709798,0.1332799354372276,0.2104051960303832,0.28624466836982165,0.3607024619387418,0.4253212912015445,0.4463348775128346,0.4346671896023555,0.4312300140615193,0.4441164593172746,0.42076034286049446,0.4121402241593597,0.4464721363908768,0.4565430743334067,0.3886050236100047,0.3230252697680742,0.35944596999468237,0.4470052085821714,0.5402286426724283,0.6346048968572056,0.7166745807240631,0.6952591978439933,0.6060409999490546,0.515156883513471,0.427219260534603,0.365312256937971,0.328661744697093,0.2722684679197578,0.2025915725465266,0.1277629579127051,0.05898061979756952,0.001852358684016453,0.0,0.06191203559891245,0.14245599045117796,0.22159625344877854,0.2927997466118595,0.3600500315532238,0.3904413418337429,0.37670456343467085,0.3659772024966732,0.37568265638222686,0.35411390216316785,0.33869619830963416,0.373075690262185,0.3794629947829087,0.30822612676490957,0.23806366992845973,0.25939827391173664,0.34506061495819007,0.44454459371265287,0.5451991629332014,0.6403162269953471,0.7361750836782159,0.7780254597530807,0.7010890846545654,0.609755097067864,0.5302270668089086,0.4464179708130631,0.3712594793675208,0.3254984278801718,0.3036641245625695,0.25031885482779725,0.18825567134937948,0.1143147062711547,0.05399751941554576,0.04234862486417823,0.09593943155677942,0.17069397787766682,0.2523035963401479,0.32765235407391646,0.39462368920985047,0.4363591182950961,0.4417014764434901,0.44496297107510596,0.4489737845122921,0.41878452699986446,0.4106741954753723,0.44713895757471556,0.44895887828947867,0.3785447489726561,0.3208286944103653,0.3682876523509251,0.45800356880361726,0.5519968508815181,0.6480047432516243,0.7354898398102461,0.7341596130719679,0.6464010122009127,0.554977127327897,0.46296711692217163,0.3917497757406734,0.3531424743670468,0.31020121453698235,0.250280689993847,0.18471750097167217,0.11816861497655617,0.07456660619117939,0.12326905731011895,0.1927659777040751,0.2570742055624431,0.32000159852148635,0.37104204932114726,0.41491990005830104,0.483181185045932,0.5703105708595209,0.661491151967009,0.7552188872727033,0.855101934784952,0.9448497593225023,0.9618795942512506,0.8835918338726918,0.7883891413134376,0.694373461351466,0.5989832092634031,0.5071488129596775,0.46755097373506516,0.5019660378887545,0.47771686003909375,0.4439764215992348,0.4650026607578277,0.4869185606759925,0.47586873309630695,0.4728318927535162,0.4692337269228375,0.43555721605691833,0.3722994934781729,0.29611306936191806,0.21919980364428437,0.14277065405793188,0.08207393406690255,0.10266845529688018,0.16762316672515576,0.2386558170282298,0.3011710771997167,0.3479796982300136,0.38383119308227776,0.4572866909595181,0.5394034710582478,0.6209937189672905,0.7145803813812346,0.8090239842056659,0.9019356159210759,0.9835769635281579,1.0,0.9184665161101697,0.8232379735121138,0.7261255585973103,0.6309238063024405,0.5338380700364556,0.4394164504093241,0.3551611952114253,0.36818678936024085,0.4271003898338548,0.41928088182364,0.380258892669898,0.3846922238749677,0.40901151087245546,0.3991649025335353,0.4072174125280328,0.42184330386745406,0.4072816046062895,0.35506036202043156,0.2860450762698601,0.21048168620732954,0.12632457403247543,0.05473778039383914,0.03591438721800344,0.09557576192381889,0.16495877847992135,0.23642381214883446,0.30721899824654786,0.35818964177345314,0.396914780857349,0.45923058921512117,0.5360151864801956,0.6265080062989459,0.7252001833987467,0.8192002996322723,0.9131748243947913,0.9780706196671454,0.9356124172598599,0.844000457215762,0.7483225831879883,0.6522082496456543,0.5574976107319878,0.46297706975395414,0.4395179789448347,0.4937742649947665,0.49389175173667765,0.45928127083001047,0.4595868353043986,0.476140461235365,0.46227876848819305,0.4653302196213205,0.4797544561537128,0.4702780503614936,0.4219755065448707,0.3526834702981181,0.27867791959872235,0.200311372080332,0.1205818636810001,0.07682997885324072,0.12078208313479766,0.18722191988570125,0.2509458182477282,0.31225324350993877,0.3591154484022314,0.4081982994884419,0.4827744122341413,0.570746197563859,0.6584734684442393,0.7403357350074351,0.8327147320274162,0.9284599168086811,0.9666262223638622,0.8992707954700765,0.803575928573568,0.7093703713107407,0.6125828118784387,0.5177399524299477,0.42615861481652084,0.40037589041046306,0.4593359220955642,0.4626913766726992,0.4208776944142494,0.40346473903494795,MI
0.5392057244310511,0.5521018374081346,0.6004963448139524,0.6899733261054186,0.7805265634002707,0.8632593364147929,0.8524776301540624,0.7654338806736962,0.6751721411497258,0.5890724760670343,0.5074865559190289,0.43422391346061096,0.3775557010952968,0.32037069968501264,0.256413497407151,0.19545289096617524,0.13223051986051249,0.07686464855615127,0.06817216902656908,0.11744711677663311,0.18854828392398493,0.26251459935372545,0.34265193651127035,0.4195894704743508,0.47725923212055954,0.501110002225936,0.4796624954108939,0.4370642515887053,0.4485511901007664,0.49035273849402605,0.5239991978976206,0.5378245296601376,0.5511085372027165,0.5891685421250039,0.6686490952887929,0.7562042079580926,0.8442666020645897,0.8836071085215444,0.8235667597743304,0.7411907289629502,0.6521665057551924,0.5647007064179779,0.48543390461489033,0.4283526386958654,0.3753484786475454,0.31398459317597016,0.2520048725705879,0.1882716520639216,0.13237441055809707,0.11004585996842331,0.1485250309960393,0.21521999613394893,0.2902019432016514,0.3723633706528202,0.44723312624860356,0.5092050033561986,0.5404940509023068,0.5200520476959465,0.4684139296534313,0.4196401410956918,0.43629723766261974,0.48218761401890853,0.5028259367403318,0.49357750860261684,0.48985906247360655,0.5188093763644757,0.5949198533467437,0.6805203659204622,0.752472775303169,0.7112723264931182,0.6156843060134791,0.5285218472426061,0.4465101783223213,0.37731864579187646,0.31835612887615894,0.2610022488210739,0.20484746288252342,0.1414933290258169,0.0786446902086837,0.021902125487316182,0.0,0.041522858923145556,0.11297411905037613,0.19078115061931222,0.2663929962332716,0.33603471533381524,0.38521124182056377,0.3926252360344973,0.3647636625211421,0.31738516147224005,0.3118337361156591,0.37022554973081334,0.4137966426794366,0.44453170374740636,0.46330785854909595,0.490250205733338,0.5312520251233062,0.6129520101709958,0.7042202377075995,0.7921499962558378,0.8138981859394516,0.7332623187662157,0.6441901021089753,0.5578191022258856,0.4787763076224758,0.4079699732165132,0.3555988486600288,0.2994993907141732,0.23588022304040956,0.17137594235023723,0.10718901622581667,0.055661904758718794,0.06719737675588311,0.13100056167171448,0.20613519105516942,0.28422507890358006,0.36249963093940063,0.44113093859768204,0.5043665108657895,0.5304678273442691,0.5156111604943363,0.46876133194550373,0.47177719657712536,0.5240198425700062,0.5685855299709224,0.6052320988810844,0.6015879564060567,0.5597990415628673,0.5184132070368066,0.5361712231218603,0.5622807043203677,0.5538017653903813,0.5165469377227929,0.44763778395560694,0.3739362159685269,0.2969250780185959,0.21761818349927253,0.13952726737322707,0.08950440706727858,0.12602552503757614,0.19174695826299848,0.25700824667657307,0.3177582215842669,0.3765500907385515,0.4305826664528094,0.4944870692337324,0.5801798476297229,0.6678623272333264,0.7587117123665073,0.8492709715515263,0.9324040893317205,0.9472139919233447,0.8687952959236809,0.7757719712973665,0.686929068563314,0.6034312410269715,0.5484330517250746,0.5050174333770301,0.4846458354981775,0.4579153896473249,0.42202211636197373,0.37420842232212714,0.37153104089882216,0.41285882141041763,0.4286523396871804,0.4169501492447747,0.3694986220060019,0.30210101036365544,0.2243355901359423,0.14469410193977872,0.07492233179737973,0.044969471216853574,0.09259821081283137,0.15333628276919908,0.2164040940032339,0.2769101043244928,0.3319538045703938,0.391945139568771,0.4618430842903609,0.54224950181918,0.6285051817629326,0.7189599329331784,0.810058453732468,0.8788747471297118,0.8526920331852621,0.7708451658385422,0.6826873524423933,0.5984953939733175,0.5415494816561159,0.5291451347646161,0.5397847025674489,0.5321168575186073,0.49332711280638053,0.47358945763888616,0.5218586577327751,0.5612204547350073,0.5725243310637294,0.5453536460735375,0.48907596595875336,0.4119496000007856,0.33561372523232746,0.25881470303519016,0.18982025666596547,0.15312319477337977,0.19406152763569828,0.25750274307778365,0.32259358433657126,0.37995415373638686,0.4376028991816261,0.49176760269549225,0.5628516429825647,0.6467481630704304,0.7370480773500374,0.8346190293152829,0.9256698647305373,1.0000000000000002,0.9875409265314834,0.9076563777869,0.8183809697959299,0.7268006079823894,0.6395371165141432,0.5924953334035921,0.5703595762179652,0.5535707095409481,0.5204230976882724,0.4853276365398733,0.494301719919223,0.5266428421223182,0.5277507279365203,0.4991900926880246,0.4343233343787589,0.35951902555634363,0.28392811119796946,0.2088573746901452,0.1378874865972035,0.10922299441808136,0.15501967441022835,0.22233060431096785,0.28461769812539917,0.34586668307490664,0.4044276561721676,0.4602181284116098,0.5305181790078224,0.6195396508444324,0.7101179979624146,0.8005134138299865,0.8908533287213911,0.9745859775300902,0.9912619186729004,0.9172406671344902,0.8235614886823261,0.7335261888295073,0.6574463869305329,0.6053964923355746,0.5746350575494601,MI
0.511828345491691,0.5687997944604972,0.6254866184258658,0.6775801494790701,0.7278267370501508,0.7422498772735586,0.718159660660203,0.7089142423232728,0.7380374429249625,0.7797383021563868,0.770087204185413,0.6958774809403185,0.6061585728949621,0.5273045226529767,0.452630889289376,0.3713194819014003,0.28523283228125473,0.1998391530530903,0.16415639831646167,0.2314606915226296,0.3187750806485641,0.4090307356075973,0.5023910820600908,0.5916051073272872,0.6801842726362022,0.768983313532656,0.8500520610162143,0.9172153444523989,0.9221055957890969,0.863520003017171,0.8104736410025575,0.7724290756891705,0.7508459747077478,0.7241711521251863,0.712798589745836,0.7403286358901311,0.7762884416706228,0.7839995730181997,0.7622564520577055,0.755851979797409,0.7926741165494706,0.8265669319586342,0.8016300709082065,0.7206979021022601,0.6297328581995243,0.5384354495561059,0.45145356082645893,0.35883370035132534,0.2756623643321032,0.20423806503119768,0.17180546083040837,0.23571107994190132,0.3271106654149549,0.41685897231944,0.5050339667047723,0.5983138092781328,0.6918177424136924,0.7845079177479537,0.8695325866833556,0.9458084525070938,0.9696739646626593,0.913391288430468,0.8526473283212395,0.8040621003449806,0.7634908670802283,0.7232025736739394,0.6865022371245408,0.644722270770911,0.64198266284306,0.6772301562303269,0.686733294417827,0.643387268610744,0.5950013907190213,0.5710628776833133,0.6047338686537962,0.6426481306126406,0.6437051298857497,0.5765423939724632,0.502310453778561,0.42856147856948135,0.3377798435037749,0.24724863713325562,0.15976492701915535,0.06976164906581372,0.0,0.02470340925231307,0.11100630215797047,0.1981436086865871,0.291112985432745,0.38402400475491194,0.4710817703633028,0.5622730866397319,0.654888854183034,0.7410695746740845,0.8234414730330055,0.8801806740332612,0.8505498518881678,0.7912851208036908,0.7580787610203767,0.7398783523059187,0.710952322171789,0.6851900558121102,0.6968571375565114,0.7391893015158235,0.7698237065052853,0.7425420930696747,0.7260746205056314,0.7566728409090582,0.8052862556291156,0.8289081782232568,0.7767257999084323,0.6908593892543109,0.5991961727252324,0.5125419453096376,0.4206064817016322,0.333083332894097,0.244403897427397,0.19937357536632272,0.2583150093423088,0.34790317324643616,0.43476372752622683,0.5274779560118861,0.617701897293315,0.7054286086139807,0.7952911840302157,0.8780240785455844,0.9487897456058507,0.9514861278363402,0.8909509278679413,0.8353041873420843,0.790839562098711,0.7569303665186731,0.726777412244495,0.7209211890020781,0.7477846126047134,0.7902107816450317,0.8236096039509861,0.8485233625870949,0.8296378434675966,0.785335765181695,0.7516875182396563,0.7516585005928735,0.7838640137632396,0.817915386444831,0.8630633026969439,0.9203803504764114,0.9833137819522744,0.9906988691913905,0.9365776026211079,0.8603795718304037,0.7748378959894415,0.6874686093838243,0.5972749306862932,0.5040974397027198,0.4387419800009573,0.4925182747883421,0.5829609625007861,0.6700901318684132,0.7629435363546084,0.8444037835148872,0.8605453956843132,0.8358504104613955,0.7879543766096129,0.7578759481702131,0.7870560946897909,0.8046855022100847,0.770295239684722,0.7273238671286382,0.7204293333643959,0.7493890081933712,0.7723913055682035,0.7937602023723791,0.8463495649157688,0.9075323242899238,0.9212157993223038,0.881280819863514,0.8051723066774887,0.7222489484558778,0.6311544730148329,0.5376675959797768,0.44416216165794764,0.3506670823419169,0.2633379717473936,0.2625840190955835,0.3452136174573608,0.4377467827140389,0.5246634101678576,0.6149903577078659,0.6885207381467497,0.6890095074074591,0.6583114031637747,0.6195695819126164,0.625729996344472,0.6743545835550866,0.7190993155713845,0.7225186723317583,0.6830524363868831,0.6687345267713218,0.7073282153974403,0.7427570485870649,0.7841729270807423,0.8228456914767932,0.8730354339800499,0.9351734802082161,0.9920930150063794,1.0,0.939549224817267,0.8569638307894363,0.7707521372674966,0.6840964048191323,0.591771567618282,0.504314160141085,0.4154015308740957,0.3821782690982807,0.4602072662261085,0.5514548335950527,0.638429523364856,0.7296994259938998,0.8140361185975691,0.8614667858237404,0.8517728462642806,0.8144257937416965,0.7892900385885198,0.8036659906499197,0.8184286511682004,0.8067597737187846,0.7685259396934621,0.7406864214672253,0.7569555762747378,0.7814188153609001,0.8062806736430466,0.8502833550885935,0.9110250085894516,0.9659854465062532,0.960458334937379,0.90601896857134,0.8285146639449144,0.738180033734601,0.6503818414271791,0.5602238778005675,0.46770437281878396,0.4211090745359123,0.49162824867323573,0.5825502461416263,0.6695327254716328,0.7572591471873564,0.8192461269272748,0.8195046791536689,0.7859508474220112,0.7489937202232537,0.7511667182918167,0.7714214356547642,0.7560203710511284,0.7105734587309847,0.6814553519260902,MI
0.8653002517316719,0.856459599689338,0.8543780973908979,0.8489943232595529,0.848143631068438,0.8478511052039113,0.8398622125244826,0.8288857364444262,0.839902329378281,0.8592822127905304,0.8664922314039729,0.8629285935032911,0.8625856470768678,0.8591249863647712,0.8411297124311168,0.7940600420565507,0.7362159961092081,0.6793876423748451,0.6252326757445981,0.566582245469917,0.5076254679817938,0.4486686195846877,0.38971177118758143,0.3307557073737734,0.2723888106644576,0.21868384715670236,0.1611304389989756,0.10218383983091145,0.0444671738647604,0.0,0.014324237999724265,0.06748327332515125,0.12237477328216223,0.18118711491764244,0.2401438932600904,0.2987968897514443,0.35295715634647823,0.4097811104847853,0.46871903227562156,0.5274444797219033,0.5818792106320072,0.6383248500695455,0.6930318474507933,0.7397283175681522,0.7933012389036473,0.8460579801041088,0.8891403211665359,0.9056494840048286,0.9088702593379332,0.9062527519545123,0.8919983064139592,0.8623137335936326,0.8270079991973946,0.7891254813935198,0.7533736169803775,0.7175826285973765,0.6807339653523516,0.6414523822071825,0.6152984175826433,0.6344559745894058,0.6760573852826823,0.7234361625571764,0.7656914699198218,0.8041542070729233,0.8353141280316754,0.8520918667078423,0.8604918411452394,0.8690382520683813,0.8744084015020717,0.8792845070282067,0.8793350391001407,0.8807635794478874,0.8813538215630239,0.8874002632712616,0.890232076681754,0.8816603673562049,0.8615787159150772,0.8694668199578437,0.891106243964044,0.9052024891292192,0.9088809391547854,0.906230372349492,0.9054691259203262,0.8869739328335231,0.838464455324949,0.7803170721853199,0.7266401634270832,0.681831234373963,0.6251052175431775,0.5661557111082993,0.5073345150453743,0.45238003676269517,0.39648259713952966,0.33758060712009735,0.27862471517159865,0.22031076261728805,0.1666645678404336,0.109000318949178,0.05024133485911869,0.004323803969560391,0.021423902106758264,0.07587065717838648,0.13017217703236067,0.18886604054417028,0.24782285818557298,0.3067797065826792,0.36573655497978547,0.4246934033768917,0.48365025177399795,0.5426071001711041,0.6015639485682105,0.6604884279826972,0.7168353494712667,0.7713822004785469,0.8297863562470364,0.8837276253308795,0.9344849744779875,0.968950989786475,0.9785096173020853,0.9782312475043686,0.9683961432366082,0.9439158596956025,0.912393131937314,0.8736310136202177,0.8317376420770204,0.792811234589009,0.7542595240647338,0.7115473074979646,0.6723461551859,0.6502280004558194,0.6743686967802174,0.7161109346398966,0.7595481791704422,0.8007149317585089,0.8360282419321414,0.857421764553592,0.8613602842060197,0.855983610777121,0.8511926633384841,0.8481932073740006,0.8477978131395085,0.8429270979632701,0.8443980495723102,0.8579972862574625,0.8647800960681182,0.8658174457198753,0.8692696968552183,0.8712932030199836,0.8772225225442838,0.8814219457303727,0.8817531540745087,0.8679658792857026,0.8395496301645253,0.8038108343286592,0.7622790001129995,0.7159653284469598,0.6875106841976999,0.7120297197490726,0.7525924156199362,0.7955087460165455,0.8344692572988319,0.8737763821622166,0.9138970682903178,0.9507421367535995,0.9769779152790892,0.9941219512725907,0.9962004557861976,1.0,0.9967006414326656,0.9672259412309583,0.918364680270495,0.8650588724997637,0.8074201821758891,0.7517471083218197,0.6965889020848994,0.6377403310261616,0.579930366470637,0.5585174470697247,0.5960666261373349,0.6389830983624925,0.6862079270058736,0.7403673601421084,0.7942409046569334,0.8505917026020513,0.8996141636203414,0.9221832876368552,0.9312090138719751,0.9311861793290903,0.9303263836558298,0.9231243564369065,0.9102493248940464,0.8905681960249188,0.894997680450067,0.9109968410740004,0.9097681155765891,0.9058374034414147,0.9019292113331436,0.9016512905990062,0.8973939518338951,0.892127109305366,0.8899841510539763,0.8804334300087009,0.870434714592053,0.8560575247897468,0.8285771784413487,0.7905856809573715,0.7528908765142164,0.7115518839000647,0.6697118958330457,0.6550225666621436,0.6905322277011385,0.7283353139950124,0.7622123559318328,0.7984765814448322,0.8378292968425103,0.8725029600319187,0.9036356178923082,0.9215280367542424,0.9291219055960462,0.9261270958082055,0.9250107502128309,0.9011637422705467,0.859517435995421,0.8106769708185704,0.757844554984594,0.7063503658114272,0.6553663613728156,0.6017691108323651,0.544474816326106,0.48552732948817207,0.4272214665511845,0.4007289429062511,0.44774981509435713,0.5038381280659856,0.558561536399186,0.6173483452891093,0.6761809239072427,0.7312073069720268,0.7869495750848772,0.8413026665984591,0.8719489220157717,0.8794853014472497,0.8822737202071005,0.8870203293690557,0.8863887040582363,0.8777680728770572,0.8589414716933836,0.8521634596115708,0.8636542769751312,0.8655406609646987,0.8662538048067718,0.8734317516933823,0.8773012413455379,0.8804791883119996,0.8856549289690125,MI
0.8653002517316719,0.856459599689338,0.8543780973908979,0.8489943232595529,0.848143631068438,0.8478511052039113,0.8398622125244826,0.8288857364444262,0.839902329378281,0.8592822127905304,0.8664922314039729,0.8629285935032911,0.8625856470768678,0.8591249863647712,0.8411297124311168,0.7940600420565507,0.7362159961092081,0.6793876423748451,0.6252326757445981,0.566582245469917,0.5076254679817938,0.4486686195846877,0.38971177118758143,0.3307557073737734,0.2723888106644576,0.21868384715670236,0.1611304389989756,0.10218383983091145,0.0444671738647604,0.0,0.014324237999724265,0.06748327332515125,0.12237477328216223,0.18118711491764244,0.2401438932600904,0.2987968897514443,0.35295715634647823,0.4097811104847853,0.46871903227562156,0.5274444797219033,0.5818792106320072,0.6383248500695455,0.6930318474507933,0.7397283175681522,0.7933012389036473,0.8460579801041088,0.8891403211665359,0.9056494840048286,0.9088702593379332,0.9062527519545123,0.8919983064139592,0.8623137335936326,0.8270079991973946,0.7891254813935198,0.7533736169803775,0.7175826285973765,0.6807339653523516,0.6414523822071825,0.6152984175826433,0.6344559745894058,0.6760573852826823,0.7234361625571764,0.7656914699198218,0.8041542070729233,0.8353141280316754,0.8520918667078423,0.8604918411452394,0.8690382520683813,0.8744084015020717,0.8792845070282067,0.8793350391001407,0.8807635794478874,0.8813538215630239,0.8874002632712616,0.890232076681754,0.8816603673562049,0.8615787159150772,0.8694668199578437,0.891106243964044,0.9052024891292192,0.9088809391547854,0.906230372349492,0.9054691259203262,0.8869739328335231,0.838464455324949,0.7803170721853199,0.7266401634270832,0.681831234373963,0.6251052175431775,0.5661557111082993,0.5073345150453743,0.45238003676269517,0.39648259713952966,0.33758060712009735,0.27862471517159865,0.22031076261728805,0.1666645678404336,0.109000318949178,0.05024133485911869,0.004323803969560391,0.021423902106758264,0.07587065717838648,0.13017217703236067,0.18886604054417028,0.24782285818557298,0.3067797065826792,0.36573655497978547,0.4246934033768917,0.48365025177399795,0.5426071001711041,0.6015639485682105,0.6604884279826972,0.7168353494712667,0.7713822004785469,0.8297863562470364,0.8837276253308795,0.9344849744779875,0.968950989786475,0.9785096173020853,0.9782312475043686,0.9683961432366082,0.9439158596956025,0.912393131937314,0.8736310136202177,0.8317376420770204,0.792811234589009,0.7542595240647338,0.7115473074979646,0.6723461551859,0.6502280004558194,0.6743686967802174,0.7161109346398966,0.7595481791704422,0.8007149317585089,0.8360282419321414,0.857421764553592,0.8613602842060197,0.855983610777121,0.8511926633384841,0.8481932073740006,0.8477978131395085,0.8429270979632701,0.8443980495723102,0.8579972862574625,0.8647800960681182,0.8658174457198753,0.8692696968552183,0.8712932030199836,0.8772225225442838,0.8814219457303727,0.8817531540745087,0.8679658792857026,0.8395496301645253,0.8038108343286592,0.7622790001129995,0.7159653284469598,0.6875106841976999,0.7120297197490726,0.7525924156199362,0.7955087460165455,0.8344692572988319,0.8737763821622166,0.9138970682903178,0.9507421367535995,0.9769779152790892,0.9941219512725907,0.9962004557861976,1.0,0.9967006414326656,0.9672259412309583,0.918364680270495,0.8650588724997637,0.8074201821758891,0.7517471083218197,0.6965889020848994,0.6377403310261616,0.579930366470637,0.5585174470697247,0.5960666261373349,0.6389830983624925,0.6862079270058736,0.7403673601421084,0.7942409046569334,0.8505917026020513,0.8996141636203414,0.9221832876368552,0.9312090138719751,0.9311861793290903,0.9303263836558298,0.9231243564369065,0.9102493248940464,0.8905681960249188,0.894997680450067,0.9109968410740004,0.9097681155765891,0.9058374034414147,0.9019292113331436,0.9016512905990062,0.8973939518338951,0.892127109305366,0.8899841510539763,0.8804334300087009,0.870434714592053,0.8560575247897468,0.8285771784413487,0.7905856809573715,0.7528908765142164,0.7115518839000647,0.6697118958330457,0.6550225666621436,0.6905322277011385,0.7283353139950124,0.7622123559318328,0.7984765814448322,0.8378292968425103,0.8725029600319187,0.9036356178923082,0.9215280367542424,0.9291219055960462,0.9261270958082055,0.9250107502128309,0.9011637422705467,0.859517435995421,0.8106769708185704,0.757844554984594,0.7063503658114272,0.6553663613728156,0.6017691108323651,0.544474816326106,0.48552732948817207,0.4272214665511845,0.4007289429062511,0.44774981509435713,0.5038381280659856,0.558561536399186,0.6173483452891093,0.6761809239072427,0.7312073069720268,0.7869495750848772,0.8413026665984591,0.8719489220157717,0.8794853014472497,0.8822737202071005,0.8870203293690557,0.8863887040582363,0.8777680728770572,0.8589414716933836,0.8521634596115708,0.8636542769751312,0.8655406609646987,0.8662538048067718,0.8734317516933823,0.8773012413455379,0.8804791883119996,0.8856549289690125,MI
0.511828345491691,0.5687997944604972,0.6254866184258658,0.6775801494790701,0.7278267370501508,0.7422498772735586,0.718159660660203,0.7089142423232728,0.7380374429249625,0.7797383021563868,0.770087204185413,0.6958774809403185,0.6061585728949621,0.5273045226529767,0.452630889289376,0.3713194819014003,0.28523283228125473,0.1998391530530903,0.16415639831646167,0.2314606915226296,0.3187750806485641,0.4090307356075973,0.5023910820600908,0.5916051073272872,0.6801842726362022,0.768983313532656,0.8500520610162143,0.9172153444523989,0.9221055957890969,0.863520003017171,0.8104736410025575,0.7724290756891705,0.7508459747077478,0.7241711521251863,0.712798589745836,0.7403286358901311,0.7762884416706228,0.7839995730181997,0.7622564520577055,0.755851979797409,0.7926741165494706,0.8265669319586342,0.8016300709082065,0.7206979021022601,0.6297328581995243,0.5384354495561059,0.45145356082645893,0.35883370035132534,0.2756623643321032,0.20423806503119768,0.17180546083040837,0.23571107994190132,0.3271106654149549,0.41685897231944,0.5050339667047723,0.5983138092781328,0.6918177424136924,0.7845079177479537,0.8695325866833556,0.9458084525070938,0.9696739646626593,0.913391288430468,0.8526473283212395,0.8040621003449806,0.7634908670802283,0.7232025736739394,0.6865022371245408,0.644722270770911,0.64198266284306,0.6772301562303269,0.686733294417827,0.643387268610744,0.5950013907190213,0.5710628776833133,0.6047338686537962,0.6426481306126406,0.6437051298857497,0.5765423939724632,0.502310453778561,0.42856147856948135,0.3377798435037749,0.24724863713325562,0.15976492701915535,0.06976164906581372,0.0,0.02470340925231307,0.11100630215797047,0.1981436086865871,0.291112985432745,0.38402400475491194,0.4710817703633028,0.5622730866397319,0.654888854183034,0.7410695746740845,0.8234414730330055,0.8801806740332612,0.8505498518881678,0.7912851208036908,0.7580787610203767,0.7398783523059187,0.710952322171789,0.6851900558121102,0.6968571375565114,0.7391893015158235,0.7698237065052853,0.7425420930696747,0.7260746205056314,0.7566728409090582,0.8052862556291156,0.8289081782232568,0.7767257999084323,0.6908593892543109,0.5991961727252324,0.5125419453096376,0.4206064817016322,0.333083332894097,0.244403897427397,0.19937357536632272,0.2583150093423088,0.34790317324643616,0.43476372752622683,0.5274779560118861,0.617701897293315,0.7054286086139807,0.7952911840302157,0.8780240785455844,0.9487897456058507,0.9514861278363402,0.8909509278679413,0.8353041873420843,0.790839562098711,0.7569303665186731,0.726777412244495,0.7209211890020781,0.7477846126047134,0.7902107816450317,0.8236096039509861,0.8485233625870949,0.8296378434675966,0.785335765181695,0.7516875182396563,0.7516585005928735,0.7838640137632396,0.817915386444831,0.8630633026969439,0.9203803504764114,0.9833137819522744,0.9906988691913905,0.9365776026211079,0.8603795718304037,0.7748378959894415,0.6874686093838243,0.5972749306862932,0.5040974397027198,0.4387419800009573,0.4925182747883421,0.5829609625007861,0.6700901318684132,0.7629435363546084,0.8444037835148872,0.8605453956843132,0.8358504104613955,0.7879543766096129,0.7578759481702131,0.7870560946897909,0.8046855022100847,0.770295239684722,0.7273238671286382,0.7204293333643959,0.7493890081933712,0.7723913055682035,0.7937602023723791,0.8463495649157688,0.9075323242899238,0.9212157993223038,0.881280819863514,0.8051723066774887,0.7222489484558778,0.6311544730148329,0.5376675959797768,0.44416216165794764,0.3506670823419169,0.2633379717473936,0.2625840190955835,0.3452136174573608,0.4377467827140389,0.5246634101678576,0.6149903577078659,0.6885207381467497,0.6890095074074591,0.6583114031637747,0.6195695819126164,0.625729996344472,0.6743545835550866,0.7190993155713845,0.7225186723317583,0.6830524363868831,0.6687345267713218,0.7073282153974403,0.7427570485870649,0.7841729270807423,0.8228456914767932,0.8730354339800499,0.9351734802082161,0.9920930150063794,1.0,0.939549224817267,0.8569638307894363,0.7707521372674966,0.6840964048191323,0.591771567618282,0.504314160141085,0.4154015308740957,0.3821782690982807,0.4602072662261085,0.5514548335950527,0.638429523364856,0.7296994259938998,0.8140361185975691,0.8614667858237404,0.8517728462642806,0.8144257937416965,0.7892900385885198,0.8036659906499197,0.8184286511682004,0.8067597737187846,0.7685259396934621,0.7406864214672253,0.7569555762747378,0.7814188153609001,0.8062806736430466,0.8502833550885935,0.9110250085894516,0.9659854465062532,0.960458334937379,0.90601896857134,0.8285146639449144,0.738180033734601,0.6503818414271791,0.5602238778005675,0.46770437281878396,0.4211090745359123,0.49162824867323573,0.5825502461416263,0.6695327254716328,0.7572591471873564,0.8192461269272748,0.8195046791536689,0.7859508474220112,0.7489937202232537,0.7511667182918167,0.7714214356547642,0.7560203710511284,0.7105734587309847,0.6814553519260902,MI
0.8513132171157407,0.830758015578791,0.8208106385191813,0.8141256632595284,0.8277677703321538,0.8404842758542141,0.8400736800609603,0.852684039210184,0.8666616517250034,0.8685668667901063,0.8679983615808591,0.8547826087742214,0.8531124299159827,0.8773521238764768,0.9054563303981045,0.932202600077463,0.9104419692462744,0.8491923167798694,0.8207204827544992,0.8249535718739947,0.7511251888039494,0.6687037244178335,0.5899944936117596,0.5113310207838737,0.43052445936687,0.3532379432754027,0.2772013765861858,0.21646219118312682,0.1720241868934944,0.1488881636500592,0.11915552384844963,0.08048017449810874,0.04489243005705723,0.013056818795381009,0.010957742299316786,0.058247181975016105,0.11620458382181287,0.17602488154206064,0.24480180923593542,0.3176974261248642,0.3894629406007144,0.46907977501982856,0.5423368539769049,0.6143925737270237,0.6856517387053929,0.7561785864169788,0.8195244388315608,0.871639875221728,0.875506217639098,0.8524531715220229,0.8372306650826795,0.8212910708277268,0.8117486078891347,0.8142191390769313,0.8259865980937176,0.8337880747972699,0.8444709726938964,0.8475840830009762,0.8379336346625728,0.8415670357703684,0.8395579512238185,0.8480074125491837,0.8235915999402619,0.8255233203694199,0.8528738577323836,0.8781009696505477,0.9008216337148109,0.8727591721277581,0.8143538547591262,0.7848964290156544,0.7641837319859976,0.6900323013275464,0.6127331316664775,0.5317518660450797,0.45327458634524587,0.3714575862447853,0.29560937534581133,0.22362539272294857,0.17232146299572348,0.15983827238686676,0.13162005531195864,0.09795721603190688,0.060558826302309354,0.02480334820149288,0.0,0.01723356437123713,0.05962724305687428,0.11969578240313994,0.1949858475675985,0.26532939647239284,0.33467769450270657,0.4062679381297567,0.47996597165221533,0.5521916463193883,0.6242415527403056,0.6950968041095349,0.7707706650364634,0.8372204936149217,0.8728059687844891,0.871513296000241,0.8544693342826508,0.8319604293635097,0.8092209210775505,0.8164228461569296,0.8352684573732683,0.8609124744122876,0.8777385892384166,0.8951041783323741,0.8971916059096601,0.9063031969001409,0.8983870227621873,0.8939844766990004,0.9131031719009757,0.9291090114478306,0.9550143471164718,0.9442053368256498,0.8838365140139994,0.83612884717797,0.8294043607930588,0.7666390242120338,0.6857372295996387,0.608149108625637,0.5309556945850411,0.45268212529229146,0.37556652304126725,0.3055373224659965,0.28767190354102823,0.3523033452955564,0.43428982032195185,0.511783265328245,0.5908862595569373,0.6702525302020046,0.7476450051947756,0.826744479245638,0.9023376018940734,0.9631232075644496,0.9725728240637466,1.0,0.9988110437945186,0.9790198927797555,0.9558289258365305,0.9387911539255076,0.9536496849699287,0.9610299315760509,0.9500407863093012,0.9381808093638484,0.9237028056140466,0.9006374423219263,0.8755323171349043,0.8663151117473786,0.8773507103340075,0.8985210531438734,0.9170001794364513,0.9175212039637719,0.8859526135062894,0.8231684894191145,0.7570649765220776,0.6852447577498639,0.6135086220638895,0.5423884241136294,0.4683672553851097,0.3949785579219276,0.3202663362761722,0.24591388211004972,0.17527037533525203,0.11134917114083498,0.06096557666911662,0.04821913788009602,0.07753746902332215,0.11496983501454938,0.15157509505010225,0.18079010352726255,0.20768101430685038,0.24648851698367436,0.3168370636570843,0.4005281742428701,0.4866703075616443,0.5658076298391492,0.6456164155441224,0.7224507265309601,0.7993047690195842,0.8786033497340013,0.939670090638169,0.9273601401743838,0.9323206578599579,0.9543183536575022,0.9410877547476386,0.9138875488356644,0.8845878553910618,0.8736722990710355,0.8981505187509335,0.893627912827117,0.8890728275969342,0.8864573951125556,0.8906674135700303,0.8858539214559817,0.8847312054101666,0.8764863795299176,0.8638925401084236,0.8574274459632458,0.8632188057547752,0.8897332060874668,0.9049547015770933,0.9238848759944505,0.9171140453305262,0.871249992132781,0.8144347923131301,0.7458528262945996,0.6731145904129263,0.5963604039143462,0.5217966095328099,0.4492755290504107,0.3777791695411292,0.30706210039608894,0.23544941116764706,0.1704588430410503,0.10773178164728181,0.05652449299651652,0.06334250860716262,0.09916726256000041,0.1330466294321082,0.17178114232786168,0.19862341780676562,0.22933887038511225,0.2714144602312605,0.34265494626888704,0.42239488904372635,0.5013777493533644,0.5811801638885621,0.6596549441936508,0.7370044529858153,0.8143980453180015,0.8954509712692773,0.9674848835206555,0.9801318728485007,0.9343828943457755,0.9608444758338792,0.9776976424250887,0.9741695034960944,0.9447232165202935,0.909773397948483,0.8963018300553531,0.9066855025676839,0.9087569945871645,0.906179026660944,0.9140508060891772,0.9024560486919992,0.8903179259730583,0.9003879803455792,0.8811227146552949,0.86809130422033,0.8557937811908984,0.8608227588607198,0.8809576270215707,0.903727534337075,MI
0.45128046578251635,0.5079544794413099,0.5591367844825902,0.5605875684308436,0.5160953122671966,0.4636497837105137,0.418625138966655,0.41041431028454267,0.45886530528546465,0.5218704659217343,0.5830959085985262,0.6538844830445788,0.719060400124775,0.7660238764027406,0.7664585408438466,0.748431761995939,0.7506393367625345,0.7754079604419443,0.7989442566131281,0.7903427319739124,0.7784761665560763,0.8088386855044029,0.8309721707716039,0.7817374319066547,0.6970688511189042,0.6072442970062985,0.5185976679496985,0.43137014722871025,0.3445977707981084,0.25542948864464765,0.16762324463028688,0.08582617786920022,0.07271141384068658,0.14966170275250978,0.23613604370027674,0.3281787865682252,0.42064192953285506,0.5131054403635614,0.6055689511942667,0.6979353346069298,0.7828763737692938,0.7943979745806645,0.722984368116946,0.6535091830260741,0.5983899566174354,0.5552929149290148,0.506461432325826,0.4578199292737243,0.41782276944320096,0.4293001146042438,0.48853819970190326,0.5581557860379015,0.6237656875979251,0.6832461876530113,0.7445993447300753,0.7656903938761005,0.7443116066037191,0.7308143299118696,0.7404244140736923,0.762154062246231,0.7666754683189346,0.7501823679840564,0.7698484339192643,0.7988464601419377,0.758746683265579,0.6755996710844151,0.5857192853996186,0.4986967565821895,0.4095218047394701,0.3201774186117744,0.23338737675514787,0.14809837668651993,0.07224962149100966,0.0,0.022245605720773276,0.10507262623521951,0.19698039350264596,0.2894384557895858,0.380602098908578,0.4665145046867357,0.55784135322232,0.6502902190755583,0.7405605490310051,0.7959767121656619,0.7440486760393633,0.6654902593274775,0.5954388927798361,0.5411978115039721,0.49827786057704915,0.44904213879039323,0.4004898749292566,0.3674826146354343,0.3981573057229738,0.4621217057420476,0.5310323267563551,0.6006201719836154,0.6715069485590487,0.7274698622681942,0.7407053935989939,0.7303715124169331,0.7350686923948769,0.71717333617807,0.7069465357080159,0.7135114814830946,0.7124094581004675,0.7400016737699789,0.7809419240842496,0.7829715919407613,0.7122843754122542,0.6221180496603101,0.5356035087296577,0.44586661190030086,0.35789044911664003,0.2698906553435786,0.1823860950596411,0.09494537735504793,0.030373823232457964,0.06799219086845787,0.158247200040878,0.25064743390956623,0.3396263713571962,0.42687809153638157,0.5191027474245152,0.6115316490082167,0.7006569070870162,0.7539844889909669,0.7030523717207452,0.6342413955104046,0.5804233235876298,0.5385137815147191,0.49123283637216797,0.4426133347756941,0.4041974576733435,0.4253917021315071,0.47657515828726316,0.4515918295723683,0.4396545181661705,0.48748523813113,0.5343703833750347,0.5781035821518928,0.6225813633550191,0.6889837390330028,0.7667019014700301,0.8490352376666782,0.9315091698953354,0.9835908629094138,0.9325746020904998,0.8414633138548898,0.753052982278113,0.6652788802333932,0.5730012115667263,0.4864943218070775,0.47700637145720093,0.5600427145823569,0.6460852372302636,0.734844705481288,0.8145683149559128,0.8408910244730242,0.8088705528072503,0.7684888170545298,0.7371001043335498,0.738544358590996,0.7347309187040892,0.7585705496162104,0.7709605113034957,0.7544555383063488,0.7617593374915018,0.7639664543775516,0.7280329429527116,0.6646149448342588,0.5963482499073943,0.5269487636861306,0.45603416793506424,0.4053229581451997,0.429734892725398,0.47851127331765275,0.5249082471931025,0.568859294151164,0.6263066333433743,0.7035555912917183,0.7850025204725647,0.8682842056638441,0.9527794173646428,0.9999999999999999,0.9480202171319244,0.8639283540639101,0.77843926010855,0.6871978859077946,0.5949824999963854,0.5287758154428049,0.5749596543640644,0.664543742112092,0.7508367678933446,0.8311876119661471,0.8592880137993145,0.8262171817573035,0.7903472513548665,0.7805187010928686,0.7977409769159031,0.7829445929918822,0.7613920237195474,0.7584581649232146,0.7794594477710285,0.7972011989691913,0.773240224487055,0.7169953723508612,0.6500751953711611,0.5788726601344846,0.5065758661959047,0.4543088391662481,0.46855939817335723,0.5178128523981357,0.5661587750318081,0.609318061022683,0.6626419364398543,0.7317139343949556,0.8112187733961068,0.8943142984607598,0.9723100863562032,0.9781838258921461,0.9009938509735428,0.8148456879108587,0.7254376461905504,0.6345179326927656,0.5959892449878134,0.6692473189863394,0.758609696514882,0.8399586824404343,0.8857769072328233,0.8627719639350836,0.8271094153780588,0.8056857206913578,0.8240343695640339,0.8199815652763714,0.7956856664774518,0.7740947169992921,0.7793466371173611,0.7986990199220273,0.7876740661274794,0.7392002948963802,0.6716443446206749,0.600383797052427,0.5314565460928308,0.46830114508698084,0.44546008694999417,0.4923701459770956,0.5566447685338641,0.5847404459472442,0.5733023963562621,0.6089473123076891,0.6616344994438658,0.7335589042296683,0.8179605699619671,0.9050543056630137,0.9773696277710117,MI
