0,1,2,3,4,5,6,7,8,9,10,11,12,13,14,15,16,17,18,19,20,21,22,23,24,25,26,27,28,29,30,31,32,33,34,35,36,37,38,39,40,41,42,43,44,45,46,47,48,49,50,51,52,53,54,55,56,57,58,59,60,61,62,63,64,65,66,67,68,69,70,71,72,73,74,75,76,77,78,79,80,81,82,83,84,85,86,87,88,89,90,91,92,93,94,95,96,97,98,99,100,101,102,103,104,105,106,107,108,109,110,111,112,113,114,115,116,117,118,119,120,121,122,123,124,125,126,127,128,129,130,131,132,133,134,135,136,137,138,139,140,141,142,143,144,145,146,147,148,149,150,151,152,153,154,155,156,157,158,159,160,161,162,163,164,165,166,167,168,169,170,171,172,173,174,175,176,177,178,179,180,181,182,183,184,185,186,187,188,189,190,191,192,193,194,195,196,197,198,199,200,201,202,203,204,205,206,207,208,209,210,211,212,213,214,215,216,217,218,219,220,221,222,223,224,225,226,227,228,229,230,231,232,233,234,235,236,237,238,239,240,241,242,243,244,245,246,247,248,249,250,251,252,253,254,Target
0.8858148405110686,0.8481053252207333,0.7931081260950892,0.7174719597020767,0.6395635369983941,0.5763853916189445,0.5071751983584747,0.44702879666170237,0.37309239375409486,0.29886949561713916,0.23931411237812128,0.17712783052174563,0.12278357148503005,0.1295157468935768,0.11732224580082029,0.12187735309015446,0.1372169517726758,0.12833492984902106,0.13960729816576878,0.158972722191967,0.14645401274362513,0.13709365989864786,0.11908977794159359,0.11446730572789576,0.11659389188707703,0.13945632974684719,0.1600996392935019,0.16136846065216615,0.1492115889292962,0.13807261097481804,0.1449441666626634,0.16099462031057366,0.15392987312470963,0.13822281709296247,0.1415230809893302,0.16002282741015916,0.16859475489276,0.2101287386530184,0.2369950263739833,0.27609957743711,0.3275648597379264,0.3661693841216236,0.4168835593449307,0.46273984268283996,0.505803939815034,0.5575143552873474,0.5841204934041082,0.5774462771327347,0.5516082478612061,0.5128522502151744,0.46199990641110134,0.41000233369971006,0.36158293599775426,0.322674782435163,0.29317218709998016,0.2559874984519954,0.23060961150259862,0.2074624467515931,0.18634681490060245,0.17808448252768594,0.16185007331654067,0.16156561437145323,0.1737156397016424,0.2125047576290653,0.2639076472465187,0.3172880350086307,0.3897014114397317,0.46735253039068336,0.5286523927212725,0.6010327361440408,0.6792955952011406,0.753123095302497,0.8133375246144512,0.8877456583339347,0.9305107564165986,0.9178244158142359,0.8572291696240875,0.7812109190503165,0.7219167109714935,0.6461075601654214,0.5698500297833,0.5105991895091844,0.44545054485792157,0.38186494242544544,0.32272299023631534,0.2575430368615166,0.19405871112008422,0.14651359160947486,0.13797236472020336,0.13190752225140345,0.1277561858175167,0.1379029797535103,0.1389514368702729,0.15643607271756643,0.14395953069944545,0.13794362905669022,0.12991837295770692,0.11469005311844427,0.11458645907211062,0.12694436041541746,0.13831904096645342,0.15479488442936473,0.16694195451370142,0.18437032366353678,0.18499742627026183,0.1864082395225819,0.20545178550571608,0.21229068678119223,0.23603350387032807,0.254893584920898,0.25925301180916493,0.27903601913537157,0.30154236655751854,0.33430944424876596,0.3800812042183699,0.41086940897298074,0.407876584524991,0.3941225414215044,0.3643356555824466,0.31188266571349343,0.25663782197220897,0.2132541244049868,0.17395555371956428,0.14414059627846187,0.09857786692339321,0.0670767473149736,0.04469043513968174,0.04057188930156608,0.010630999149486176,0.014693105569893561,0.0036182597176215303,0.005928669736110059,0.01793370083148549,0.013068582777693738,0.04612784064083009,0.09795849963427639,0.15499277404683953,0.21323332994390265,0.2889930904917697,0.36089555688417185,0.4225660037469572,0.5003332905744458,0.578614002611074,0.6568946033244298,0.733999068148913,0.7933878724356109,0.839899514582302,0.8268473867836592,0.7696436989072701,0.6930709650709508,0.6331453599976085,0.5586958690330519,0.481710113540637,0.42217959619882794,0.3634664375864549,0.29721315307067586,0.23730222860600803,0.17555676386984764,0.10497437447775937,0.04038560271360758,0.0,0.01285119102406318,0.037901410923744105,0.056417016158003985,0.05226780239341222,0.06980218058464827,0.08986915224197034,0.09076194098487322,0.07778686259880851,0.06771276301675355,0.08260906970513737,0.09091542150208731,0.09692825804490868,0.13155267751094213,0.16968625388562097,0.19071993500146123,0.22293909151727176,0.23197544154748861,0.23222992095304607,0.24698113805640487,0.25949028859066603,0.2778276523626584,0.28659538503824145,0.3130778032991963,0.34475013871917604,0.3574124776261556,0.3943068259781155,0.4445353838660253,0.49660221584409214,0.5448837452536974,0.5623668450294836,0.5807425612707613,0.5640605992967993,0.5375854121331161,0.49478321177297335,0.45420843387271503,0.41296358091886365,0.3644050474795506,0.32502936664666704,0.28594316495726213,0.2528957791394242,0.20865573903105572,0.170977669270445,0.1519234935093161,0.14748130589159292,0.15373575448512256,0.13822434517281224,0.13798040421454916,0.14306907838366234,0.16938155477545402,0.21837761384715781,0.271898938150839,0.34488334772049223,0.4231588960463073,0.5014272644323352,0.5731621247580749,0.6349816177982683,0.7127701565184621,0.7907999893804165,0.8533036131866556,0.9228909183881591,0.9756398296140913,1.0,0.9636127047402532,0.9082516350694219,0.8319903599600202,0.7559759700540649,0.696865919431974,0.6206598632525262,0.5446151770156407,0.48611981701638296,0.4277107961806319,0.36833663879101497,0.2997525115658055,0.22153389785515776,0.15047702263300078,0.11371979791877429,0.09299646418015106,0.1087010236042647,0.12781543487082336,0.1333519617460026,0.12620766127655525,0.1440972592985963,0.17636475630883552,0.17840091163035643,0.161940269253126,0.1614853536792782,0.16149578836300504,0.16899257174713211,0.20513402599613784,0.20209309210992998,0.18548824096940741,0.18500103972135484,0.18922808259509205,0.2073947027241898,PM
0.9505839221352717,0.9325265053552383,0.9195472762540322,0.8850064027018214,0.8723834952848777,0.8975873124023859,0.9381018899516227,0.9509059227400747,0.951039243275035,0.9627863593549102,0.9772986688340635,0.9774357418356039,0.9774256340975618,0.967071508180148,0.8988213583258626,0.8346096222414725,0.7631001695784767,0.7498604914606086,0.7404422802566821,0.6797764282825125,0.594784858397102,0.5093939481286953,0.4240030378602877,0.3389019624124865,0.2773295633161883,0.2638940412189381,0.26307767617539524,0.2592295638908775,0.20229586331871197,0.12443780376820612,0.10830094928521561,0.15524628449960343,0.22596599358975178,0.3107962492581513,0.37873057658837217,0.45555585427718315,0.5409138436085121,0.6192173269144683,0.6858538320496304,0.7672679517347052,0.8246966228860049,0.846879101136079,0.8680113401191751,0.8716036967034513,0.8716049660472982,0.8716049660472982,0.8720043536410151,0.8876342208237955,0.8785713846160861,0.8966904960486475,0.8984097835797082,0.9148112979254308,0.9344723732050446,0.9507960726675697,0.9509780478885275,0.9509780478885275,0.9509780478885275,0.9509780478885275,0.9509780478885275,0.9509780478885275,0.9509780478885275,0.9516160320422613,0.9713305965553984,0.9662844729434279,0.9499701714475006,0.9284580078437092,0.9051151775447841,0.8740910224976672,0.8720096230510683,0.892030810070533,0.9264543005459642,0.9496291698370611,0.9577020575099131,0.9632045162878025,0.9511371421517283,0.9628904620102632,0.977301074310104,0.9760912262399928,0.9339930316909313,0.8715230705841939,0.7893283711007446,0.7086397230273351,0.6437040121898137,0.5596116652905039,0.474277668995327,0.40000916222896876,0.3296426946292077,0.2445057416703178,0.1615981756174305,0.09861300853756294,0.05399653055316067,0.08155042770236465,0.15987990770791471,0.22387167326551305,0.3079004514807644,0.3928078972724016,0.4598962383720431,0.5324811981234245,0.5787839258099954,0.6476887812144345,0.7148495754639721,0.7956582773511287,0.8409879852691922,0.8673225893444934,0.8716044959199478,0.8750055187108727,0.8874317915803567,0.8719884472036816,0.8716069993480899,0.8747668421026709,0.8939988381093991,0.8799622037042849,0.8995230871113589,0.930840436675624,0.9507761011568676,0.9562853235272022,0.9763212604228886,0.963794859362324,0.9543633016673163,0.9758899518817228,0.9669051333393912,0.9660528807462163,0.9553737739117891,0.9621644701614236,0.9772842359778227,0.9774357418356039,0.9774357418356039,0.9774357418356039,0.9774357418356039,0.9764035999675191,0.942069122714281,0.9020422380513167,0.8810375329252174,0.8716733155188554,0.87960123483859,0.9272542481060637,0.9734773018244458,0.9538631050411177,0.9658068290144981,0.9773706137314133,0.9807278003470024,0.9935488623979656,0.9796308726072298,0.9999999999999996,0.9809212820144082,0.9175887311244622,0.8418855456754781,0.7565399362931493,0.6711490260247417,0.5857581157563354,0.5004265014308311,0.42625969184378487,0.3557959386332432,0.2706521686297818,0.18780865729108243,0.12401627577139873,0.05472256071084303,0.026707792260175722,0.05997316663367114,0.1420292787757953,0.20684998303543845,0.287775049814464,0.37309985611494856,0.44650245582308745,0.5176183500307356,0.6028758725528931,0.6852049021396414,0.7488183931391741,0.8266260732691042,0.8698503398041182,0.9123672927042956,0.9172191510071737,0.9036326717687309,0.9234590054931187,0.9189837350162722,0.8987366708011,0.8809803418534119,0.8716733155188554,0.8780536386208273,0.8787421900101404,0.9072439104305405,0.924361631655549,0.9248749999603683,0.9356368577382193,0.9258683683803546,0.9447496041320265,0.940034702230649,0.924790217688304,0.924520353941451,0.9244875182349905,0.9143820865260737,0.898384787749611,0.8966232324900054,0.8785009654729774,0.8966778351429965,0.9047350699174257,0.9225168366170302,0.8952357423968045,0.8717149166186879,0.8489943327565581,0.8078970938615657,0.795899878800205,0.8403969052135589,0.8759126309961514,0.9120178962637335,0.92445544522112,0.924520353941451,0.9257099765373913,0.9460606245338394,0.9510174529257536,0.9603151118309907,0.9498811874985518,0.8864681225337425,0.8091136726909354,0.7237625964910346,0.645724433268827,0.5789251047310575,0.4940381100731366,0.4088019129638969,0.3386690914896069,0.26426725750555313,0.17902192825266505,0.1061432829369191,0.03616146031110867,0.0,0.02646490740768348,0.09488891695641577,0.15896124470090767,0.24118588955826326,0.326575871325153,0.41013486916078623,0.4745582779695732,0.5562902735113737,0.6374945523385898,0.7018674870398427,0.785574071952627,0.8421631218503136,0.8644883308387983,0.8718044499478688,0.8861893483231058,0.8966766139446292,0.8755198047159101,0.8716074929818078,0.8718930085796752,0.8874038793022296,0.8985694318302024,0.9176599375897063,0.9245118916491362,0.924520353941451,0.9245225987995505,0.9278783656999718,0.9465751826434263,0.9160199574751178,0.9145420530999888,0.92448511275895,PM
0.8077759364448052,0.8211015183586801,0.8132588863706185,0.8259160597798205,0.8323554741394523,0.8401269269796336,0.8572817827234513,0.8793910310843667,0.9042033449086131,0.9330069334561784,0.964948819256799,0.9792699536752028,1.0,0.9804713415925237,0.9478213402852456,0.907884699863414,0.867645521707852,0.8213478969500216,0.7638685819502866,0.7164349720275625,0.7036901349318478,0.7035912950754675,0.6986693646903688,0.6645201178663087,0.5972367469009825,0.5282035607254327,0.45917016210864503,0.3909466887678912,0.3515254352716184,0.3450644182600495,0.34613340377582746,0.3608109762971434,0.418866315111897,0.48783841106518855,0.5568719908818562,0.6258681010579537,0.6849781040470351,0.6950283843177782,0.6735157584472788,0.6401316935542622,0.6356560560340934,0.6199095974849884,0.6178902215175497,0.6236503658135018,0.6465841586576673,0.6867070718360262,0.7237764739694943,0.7582874379781175,0.7885300906055202,0.8090403965574278,0.8463344075746577,0.8720593509951575,0.8946795358249355,0.8967010524047581,0.9146734730288992,0.9294544804451568,0.9283663667533366,0.9009677867143817,0.8908548339042985,0.890155730221613,0.8753796075051521,0.8546463068718744,0.8164071241498227,0.7955853663993162,0.7916299760469863,0.7758753295235343,0.768056397678547,0.7459197953892223,0.7385619954219562,0.766835397408475,0.776826794649041,0.7398149359913226,0.6784353640290472,0.6248413120974035,0.5601961922009324,0.5064582886434708,0.44039372030373514,0.3981694198958836,0.34586795082017296,0.30796065532991124,0.2580759676748836,0.19083299977599477,0.12182468550395509,0.05965487141441983,0.009387578695462029,0.0,0.040255877554627784,0.10233015299758641,0.17133894213827539,0.24036731185072524,0.3063664156215715,0.36001313797289214,0.427978728898577,0.4970119900533865,0.5649414300387394,0.6186801521197953,0.6843134225842529,0.7312555875637852,0.7348442931558736,0.7355226210364116,0.7491565979512198,0.7383886229728378,0.7453067091377679,0.742622359960468,0.7259851635547778,0.7239182689011918,0.7347764202007414,0.7440162697568007,0.7668854342879499,0.7931693408963878,0.8273553539121719,0.8555387478304581,0.8845083133899778,0.9051592623373685,0.8862863156583329,0.8361137974859068,0.7952405660461088,0.7504488083126453,0.7222145806969036,0.6992100776753025,0.6719588003970931,0.6571543497321954,0.6583262712189324,0.673839102351387,0.668758842373026,0.6709927440876151,0.6882671425558127,0.6850487598593777,0.6977085047499769,0.7138093479703671,0.7291763359103158,0.7615789627760079,0.7742904142963778,0.789865545724096,0.8101369195154051,0.8128223107124541,0.8128218858299769,0.8083944887592427,0.7780527203418557,0.7791236942750994,0.779258557649182,0.7561565771897536,0.7542669619808855,0.7447336696100892,0.7348456052929326,0.7247704049204224,0.7202443439798842,0.7546094474201892,0.7799116114879352,0.7509115120825807,0.7047048540964251,0.6418322967876757,0.5866012354223975,0.522918048173862,0.4538949897599833,0.38494600148600133,0.3256388255591123,0.26619347340814903,0.1975348429215189,0.14545224721488825,0.14151994330625373,0.19569892467026895,0.25066967016665487,0.3192680417454201,0.38830083754001166,0.45524950069336745,0.508557440992754,0.5759085782983258,0.644696721275944,0.7017369340266395,0.7471659345643058,0.7388373725204898,0.7348530916679672,0.7345311245685213,0.7215721399384694,0.7289344931572996,0.7337058635992513,0.7184687540920152,0.7267438342799748,0.7348402647980632,0.7418033400511694,0.7728243190696653,0.7958007599588437,0.8312460870458511,0.8674661166036528,0.906486333228659,0.9359681845190018,0.9635773872599049,0.9461260684556208,0.9117300313749954,0.877206182607841,0.8396417960211711,0.8042299936463295,0.770871432600821,0.7476628862323267,0.7377272544220101,0.7498203978170896,0.7358953004001134,0.7349039558318333,0.7433516874256818,0.775189323886412,0.7813362863397755,0.785718124330502,0.8075133073085023,0.8125652788023396,0.8014909552122975,0.8125673840625436,0.8309148117816747,0.8323179179215558,0.832318267824772,0.8319964890310998,0.8185064595903473,0.8070469202660289,0.7957826406607391,0.8111257179973874,0.8189205316794177,0.8320514110406059,0.8388129138748748,0.8529304363480006,0.8761280100521613,0.8945822362749154,0.8597932615926758,0.816356232457963,0.7590398695266525,0.6987748619696204,0.6404665206500431,0.5715502271219464,0.5025168972361458,0.43481471498504387,0.3813131849416962,0.3149087017142427,0.24974300030773966,0.23170705496295962,0.2733945292328679,0.32801248958946205,0.39655812944713587,0.4655911844089813,0.5326213585777704,0.5859002604155608,0.6531987409793039,0.7222314147965729,0.7906880534682172,0.8439154520464824,0.860201533019989,0.8442696889312034,0.8325320742499978,0.832318267824772,0.832318267824772,0.8323825510489207,0.8403663709747478,0.8537266325597495,0.8706484980827982,0.8899258082261681,0.9189813510989566,0.9513971627321065,PM
0.24888220424472784,0.24919071813043203,0.3337978588228978,0.4564541999894356,0.58504637101551,0.6642104157822786,0.6255084074161381,0.6344823538511726,0.8010552329999641,0.8977777156172433,0.9040351214684161,0.813932857396388,0.6799478592697934,0.6546156386174946,0.5149251875295864,0.3894099281249712,0.2591675690300068,0.2490517694162513,0.29725151731692634,0.33259094796209965,0.3313191099053636,0.2773296599227617,0.30406289706749234,0.395263344785727,0.41641231190914496,0.4164530211378512,0.4164456375162988,0.40444576063614157,0.3372600323541022,0.34480166691386493,0.41373186634874415,0.41645292671943324,0.4164530211378512,0.4164530211378512,0.4164530211378512,0.4164530211378512,0.4164530211378512,0.4164530211378512,0.4164530211378512,0.4164530211378512,0.4164530211378512,0.4164530211378512,0.4164530211378512,0.4164530211378512,0.4164530211378512,0.4164529182755121,0.41358383525036224,0.34426290196808296,0.33266809476255155,0.33266761269128864,0.33266761269128864,0.33266761269128864,0.33266802721116484,0.34318545805101763,0.41328777305359843,0.41645320536890473,0.425207776451467,0.49614753151772106,0.5633455279249944,0.5841617159999739,0.6334438798433091,0.6677255409686556,0.6553549554902389,0.5859591002096707,0.5112401842755272,0.4251941010583682,0.36610690249078104,0.3075299332904997,0.17683997186272116,0.16365456426388825,0.10825883739712516,0.05604861953437812,0.060100670822100355,0.030796848256199993,0.00824836582047972,0.07207904002237697,0.005483007962428843,0.04099213683136327,0.08113367598015486,0.0813113873516027,0.08131181415354582,0.0920249688679089,0.1557885150969902,0.08922073782523121,0.12495266366409652,0.16525587243770623,0.2321742195721832,0.3262048976769698,0.4700534526784974,0.6009500652894655,0.7324658237936656,0.7515694584972987,0.7641694386709545,0.8327575599190453,0.8172797418136213,0.6901477858281773,0.6614236122045778,0.5772688654775564,0.4248954571003676,0.23690090642821993,0.12694592897158152,0.0814589833959829,0.09217205577585297,0.16202572399020276,0.16358669016449845,0.10744082504697339,0.09398878964379342,0.16252367210744012,0.16509670982367197,0.16509679579816527,0.1645557353670526,0.12004902030591857,0.08140932324214845,0.0813113873516027,0.08128799436975243,0.06492398036791336,0.0,0.05813028378361729,0.08126316352520746,0.0813113873516027,0.0813113873516027,0.0813113873516027,0.08149999929013774,0.13230752227413412,0.16502504801377427,0.16509679579816527,0.16509679579816527,0.16509679579816527,0.16509679579816527,0.16528670310881566,0.21626805217738543,0.24881078318197503,0.24888220424472784,0.24888220424472784,0.2488822073152459,0.2528374366550441,0.3194982725106854,0.3329417465355302,0.3935402064831237,0.42217341548375487,0.4997189989470847,0.580538792520775,0.6099776967625345,0.6738651597976144,0.7450402037393342,0.7515944591786017,0.7500039194317321,0.692826766561458,0.6409737003409504,0.5739475979259243,0.5036720804922155,0.431980571010115,0.3364381717242768,0.2561310385760738,0.22874059785648626,0.16528537792709663,0.12540319064136085,0.12053606027326857,0.16458265011221407,0.16509679579816527,0.16509679579816527,0.16533981336549353,0.22301937834083674,0.2488241787691674,0.24888220424472784,0.24917315058027967,0.31011237329675545,0.33858522509983047,0.4164876296299589,0.5113077354401199,0.6728668056212879,0.7973049549881353,0.9238317713995841,1.0,0.9890663074264587,0.922728761357563,0.9150245968341739,0.8442816814444374,0.8332377713480028,0.7662937502458327,0.6363355734785596,0.46070902230495925,0.41678510657457046,0.474643775914112,0.5001813842737697,0.5001879187065441,0.4764315908047152,0.41926093586582347,0.4905868780568863,0.574767171148185,0.5984193996687122,0.6653976112577773,0.6677583321150902,0.64391284193381,0.5766682397650893,0.5072300948519217,0.5002386230270215,0.5002384295844138,0.5002384295844138,0.5002384295844138,0.5002384295844138,0.5002384295844138,0.5002384295844138,0.5002384295844138,0.5002384295844138,0.5002383651035434,0.49804211232593687,0.43365071491944285,0.41645361988877916,0.41474116929225957,0.35616967891367857,0.332668358827064,0.33266761269128864,0.33266761269128864,0.33266761269128864,0.33273186890686723,0.36685208777169365,0.41556206901965176,0.4164530610545807,0.4209959502302034,0.4881417783381732,0.5002314316013052,0.5218143133091058,0.5885193266226327,0.6689507579879201,0.7635390911282105,0.8330355860520626,0.8353799904458707,0.8353037414833295,0.7993692536880186,0.7036995821683778,0.6467598933753642,0.5794744128109883,0.4973378387408136,0.4034808634178475,0.33079471428966123,0.2591379907162281,0.23419362057440196,0.16821945790892912,0.16479796807349523,0.12320120652631772,0.08164327320467812,0.13528458703784452,0.1650306022816359,0.16509679579816527,0.16535535783086175,0.22409206727519582,0.24882809942883277,0.24888220424472784,0.2491886950456479,0.314231404285783,0.4366792275557181,0.5475004050004344,0.6430308714786523,0.667755398529005,PM
0.16403541710190694,0.1352309177339066,0.13510200595352728,0.13510200595352728,0.13510200595352728,0.13509914391864442,0.11689207626939968,0.06745011701075931,0.06946893711353397,0.12746454327782075,0.09478948871599968,0.06600188030953369,0.06589003201117016,0.06623794432297636,0.1048364796782284,0.13503248612541618,0.14435544451955806,0.20032874167279147,0.20431397989588618,0.20431397989588618,0.20377741520210613,0.1511648846759588,0.1351370685828126,0.1349983591613828,0.10282721357970104,0.06603694293881723,0.07747394181497924,0.15207089543134167,0.23574042606623635,0.3183914336939395,0.36797336997155483,0.46332024257313265,0.5690989065345899,0.653300368615664,0.7528062035441305,0.8104437303986796,0.7224847258177771,0.5797771265328198,0.4684127830621101,0.3423925500416072,0.25818624186395667,0.173599107404252,0.13524423855491996,0.10885501187528668,0.06664181842179495,0.06589003201117016,0.06598481682751434,0.0907713968320003,0.12876408938463335,0.07173957608598514,0.07518772541708074,0.14831455314559605,0.20382871572642358,0.21810704523285018,0.27241045685835097,0.3098117971018972,0.3943656301845522,0.4780360414455611,0.5599488934576655,0.6191619327416049,0.6581431975791379,0.7591637937591091,0.8234791783608344,0.7603120101658707,0.6779472046463404,0.5930233137551504,0.5080994228639586,0.4252646646897347,0.3432655596022993,0.26050114684317194,0.2057724368121825,0.15998364597002102,0.13052847811632162,0.0740085638844672,0.06589080255902147,0.06589003201117016,0.06603600727356707,0.10259036127936305,0.09468650239344178,0.06600188030953014,0.06589003201117016,0.06623794432297636,0.10483471842599457,0.12421567801079547,0.06850284623677538,0.08308809262199723,0.1345987426368005,0.13479855089909165,0.09077161698853153,0.06598481682751434,0.06589003201117016,0.06589003201117016,0.06589003201117016,0.06603600727356707,0.10282721357970104,0.1349983591613828,0.13510112532741125,0.12701832114770895,0.0696149123759291,0.10490616462373836,0.15563086368385548,0.1816821588291191,0.13625502458461725,0.11890134236792882,0.06765150366884498,0.06589008705030075,0.06724795980481879,0.11765468258431255,0.20116095431826686,0.2607724152831672,0.20789382066350015,0.21589844009101888,0.29049561386391254,0.38136424499349886,0.4919828330023712,0.5010727386183103,0.39729427454009425,0.3009813510746735,0.24741557029131833,0.14510774584341846,0.08649336309152211,0.06603694293881723,0.08762744419727042,0.13473062720581552,0.12565217228680048,0.0688631259653043,0.06589096767642033,0.0694651944525333,0.10151505935223071,0.08610875675283935,0.13466556554742581,0.13746989418988775,0.19752878977202748,0.2685679081422414,0.32666656124930427,0.3849509682100436,0.49420483378073143,0.5562692642182565,0.6564709798604369,0.7471589584321681,0.829523984108226,0.8931278128658242,0.8781201428431924,0.7961697311800595,0.7112424829017954,0.6081162022764861,0.5103703481989577,0.4302574939600259,0.3773479115533718,0.2953637655076786,0.24534565374356632,0.1940478467294664,0.13767122580884106,0.1351022811491891,0.13510200595352728,0.13510200595352728,0.13510200595352728,0.13510200595352728,0.13510200595352728,0.13510200595352728,0.13510200595352728,0.13510200595352728,0.13510200595352728,0.13509892376211674,0.11491787280015764,0.08331050829245434,0.134565441259749,0.13510200595352728,0.13510200595352728,0.13510200595352728,0.13510200595352728,0.13510200595352728,0.13517972728785566,0.15683941813962754,0.2037403711640593,0.16601138922647607,0.13597417240351994,0.17806478425234928,0.19212810584634177,0.13726735171002247,0.13510217107092437,0.13510200595352728,0.13519679076987146,0.1599930583371485,0.2166669222334452,0.2607739563788751,0.20289686074545799,0.13558896047894642,0.06908388774896679,0.07976175434771093,0.15910088921268617,0.3013577242527461,0.3911562165823579,0.3620987975976764,0.31052159169379223,0.2614897977120947,0.2064793256523796,0.2043141450132815,0.20431397989588618,0.20431397989588618,0.20466167205115937,0.2372259660484879,0.2100923529686174,0.20435823473576775,0.22151176531105143,0.27357264996099495,0.3164450763109148,0.39772234082395563,0.422387951371201,0.4963042522789376,0.5795559563704344,0.6644798472616262,0.7494028024875679,0.8214391258970206,0.8978111080057456,0.9959786057680606,1.0,0.9182715309889069,0.8679850267996336,0.7849439062071841,0.6838693368010791,0.6116149600079162,0.5030029569174346,0.41795817291989223,0.335958627519398,0.25165611409488875,0.2052679235124497,0.20169489053369816,0.14662525790502556,0.13510294161877745,0.13510200595352728,0.13510200595352728,0.13510200595352728,0.13510200595352728,0.13506496191547868,0.10684574577676109,0.06643988137238566,0.06589030720683198,0.06845925186648394,0.12428558311283311,0.1283827087563818,0.07060384380626772,0.06589063744162615,0.06589003201117016,0.06327110776638101,0.010366655776804734,0.05370883628787837,0.06588783044587743,0.06589003201117016,0.06592509464045371,0.08158285292506662,0.0858379390022126,0.010549285053166102,0.0,0.08588643437703247,PM
0.6931269179575548,0.679224090000317,0.7051744815378402,0.7324820128756482,0.7679837645039145,0.7865847566020694,0.7867647705771112,0.786764577407844,0.7847088174712358,0.7602158650733273,0.7576172544445683,0.7576146784814757,0.7546750119466434,0.7312304068667483,0.7501030960685293,0.7594750943990958,0.7844046269452676,0.8109372520199063,0.8190916692130417,0.8434164809376732,0.8450642648781406,0.8450471921709815,0.8356110950103615,0.818866186903068,0.8430455870620133,0.8313061457508226,0.8160777972216104,0.815914597754893,0.815914597754893,0.815914597754893,0.8153893963006649,0.7838590104847549,0.7368370338982064,0.702859295916352,0.7183636007414496,0.7448084672392135,0.7575871230778457,0.7576149433993278,0.7576149433993278,0.7576150179074741,0.7588259612477621,0.7813109619673293,0.7895395235852156,0.8427056810376845,0.8753547858646415,0.9053547186726263,0.9531391827860158,0.9104881808793381,0.829659952072145,0.7611421830395653,0.6960450050597622,0.6149522597998267,0.5336756828453035,0.4530150932337378,0.39334708237259797,0.3189883882592266,0.23882313405216316,0.18167752628579148,0.11879787586773993,0.09005447326042226,0.12772186417987097,0.18672000987822468,0.25907161561358016,0.3166442547574224,0.38915107012223427,0.4473575047323539,0.5275967993281956,0.5816572828672477,0.6042905531881786,0.5893977807896027,0.6097188970934644,0.5863412266628245,0.5684063299067246,0.5537175627770701,0.5535573022113205,0.546747306269979,0.5243981283364176,0.5011122304527449,0.48425580930288525,0.47895190842926727,0.49518797473563403,0.4952665857254539,0.49672046772681977,0.5246749815507208,0.5561632392532374,0.5912461033559193,0.6304574325113208,0.6585363943098352,0.6941030046180581,0.6993148419948874,0.6993152890437626,0.6993152890437626,0.6993152890437626,0.6993151952186896,0.6984255024644819,0.6747005882894115,0.6875045769064059,0.6992905567605519,0.6993152890437626,0.6993152890437626,0.6993152890437626,0.6993152890437626,0.6993152890437626,0.6993152890437626,0.6993152890437626,0.6994902783549772,0.7153840997140941,0.7418871445611943,0.7602735259276283,0.7791847869229445,0.7582175406005893,0.7328228824546716,0.6995123001037049,0.6729686257348027,0.6790290942042079,0.7228642639523635,0.7566514734286391,0.7387017025804328,0.7498581181876007,0.756966735649657,0.735203047730681,0.7331874414522908,0.7567903953626596,0.7672609079534318,0.8062725235904873,0.8467789183441861,0.8777940394386325,0.913098761671419,0.9101408627013523,0.8475665703144459,0.7817945281823908,0.7006870456168341,0.6194109101920633,0.5432499131452069,0.4846641029486367,0.40473048356947405,0.323453988022,0.24217741106747503,0.1609011487029015,0.08317645891658998,0.028135930174438606,0.0003391015570857192,0.029563598004304303,0.08482605155059275,0.16284860528129297,0.23134141826426635,0.29616547310011576,0.3579443019093782,0.42963389303568356,0.4963438487464993,0.562649248556407,0.6203776906166514,0.6407240121657933,0.6410156346881974,0.6410156346881974,0.6410156346881974,0.6410156346881974,0.6404199287701502,0.618983274677074,0.6118735452347766,0.6118658088901938,0.6120761663551173,0.6294781721986196,0.6422014358871255,0.67705348165887,0.6994926712248812,0.7274864161071521,0.7755255727199062,0.8161439628650591,0.8442553445997811,0.8450643752605789,0.8450644249326755,0.8450644249326755,0.8450644249326755,0.8450644249326755,0.8450326342762731,0.831028763394329,0.8160719022993623,0.8159145039298199,0.8150248111756122,0.7912995327384955,0.7999398854388211,0.7884527364514398,0.7867648713010853,0.7867647705771112,0.7867647705771112,0.7867648299076713,0.7876853419308008,0.8097105616802782,0.8161373196094095,0.8343592944031624,0.8415590271155002,0.8156220884272187,0.7822592752376227,0.7582999365781822,0.7593823235678174,0.7975817149672348,0.815882861908281,0.815914597754893,0.815914597754893,0.815914597754893,0.8159179479514549,0.8193816617363003,0.8459231906814368,0.8815459174067497,0.9345871528101402,0.9657893460587372,1.0,0.9711284348685174,0.8906995793490156,0.8210750705147207,0.7570645928724824,0.6759954273015367,0.5947188503470127,0.5134425438294645,0.4351736708025413,0.37787737664816934,0.2987616751190716,0.21748613493773483,0.140101209902455,0.082276233435163,0.012163204587616328,0.0,0.02805784891119778,0.09028810355027073,0.15845713455633526,0.22868743652141799,0.29209366426113004,0.3730169643291461,0.4390649581917758,0.5059314655743465,0.5656581661071884,0.6310357696590518,0.6666695783441874,0.6754435199954525,0.6903202181901058,0.6705758398088317,0.6551583397989109,0.6411523070047984,0.6410045780030451,0.6335028683058521,0.6124431239157682,0.611865848903828,0.6119847950602697,0.6251757943225282,0.641264979014184,0.6611340290940024,0.6774651034853738,0.7044240345597679,0.7403743904278892,0.7678250504228501,0.7865037081701258,0.7867647705771112,0.7867647705771112,0.7867647705771112,PM
0.5580273216178862,0.54401815541739,0.485474020960468,0.41645657696851934,0.3574145584127657,0.29270673146036486,0.22331285699525938,0.15930872927437978,0.09978587363420233,0.04303119357907215,0.03585630492941849,0.08946969272375749,0.14665781861804006,0.21414244848212016,0.28358854757666063,0.3529395313921815,0.4140738348274642,0.45542346999177274,0.5000972204682621,0.5584918294241907,0.6076401443804258,0.6548582183922709,0.6721663270635463,0.7097125240449991,0.7382664399126431,0.7041595823440221,0.6574365694951703,0.600223433957356,0.5502194770966753,0.5400575633803348,0.6011718477711208,0.6584750200540959,0.7245869301054411,0.7819335954472546,0.8487348886274733,0.892095433176681,0.8757280536031113,0.862870797244478,0.852192874072224,0.8634680292475916,0.875506030405083,0.9015669982252761,0.9291806114933232,0.9546725723874663,0.9775162193547589,0.9836308319960638,0.953656260086376,0.919182377427151,0.8940957634189934,0.8684034492465842,0.8514652181616249,0.8502307197061163,0.850914580970731,0.8620749825934348,0.8566267351700749,0.8584277575356825,0.85315397452904,0.8304354565825891,0.7996774818373193,0.7813531950040367,0.7808581805811317,0.8096583243029092,0.8110004161161015,0.8170697407966374,0.8216625753905746,0.7737507278324132,0.7162632352639542,0.656945061640819,0.5935275873868568,0.5333992114581805,0.46995013022970245,0.4017515423157678,0.3443604861976657,0.2771893957489502,0.20791741130557728,0.1472267961705429,0.0849625707829691,0.036048888002258694,0.04382411527763019,0.10632729501114535,0.1757613409798766,0.24520937234729723,0.31460528371260676,0.3780549307678984,0.4382298315121953,0.5074649142566638,0.5750018105944754,0.632299021054243,0.696255006915993,0.7546413781822752,0.8166321443416118,0.8734277055523609,0.8849080405112293,0.8666536307131141,0.8571440121074603,0.8609400244834009,0.8835037847032283,0.8984759282417372,0.9175091733148975,0.9379095140132172,0.9674437746893054,0.9892780449412304,0.9885031725514368,0.9551241379199515,0.9250464673552847,0.8915451764816877,0.8591906729620513,0.8412227334611062,0.8347585384476868,0.8348223039336662,0.8431236137790656,0.8516246419149089,0.8637461692490795,0.8569226868068784,0.8293865744427458,0.7927019313696562,0.7747640902345112,0.7582489571710935,0.7762756098958259,0.8005495111101211,0.8145396527889308,0.8251353238525332,0.7895160978232973,0.732906988547624,0.6746653564847165,0.612228920842762,0.5542250398904094,0.4882653808007693,0.41882945076584654,0.34938141939842593,0.27993338803100776,0.2106214121343828,0.14936682239050492,0.08706173127829397,0.023572636726437057,0.0,0.03277833517758144,0.09539328503051903,0.16479572088621297,0.23361830570846753,0.29181224037681774,0.3576131589818843,0.42705344288803104,0.49599467676359765,0.554385793656424,0.6163724167888454,0.674418929825459,0.7398465516427066,0.797821010767084,0.8612090517738382,0.8707106467905699,0.854494936996316,0.8540557092077106,0.8420085675539193,0.8354925456456774,0.8711578187440203,0.8919866632271716,0.9095893532242294,0.9476404908408353,0.9761644589522716,1.0,0.9997498235507924,0.9684092345726221,0.9270958123294473,0.8983535653369312,0.8751779832656492,0.8520733398783915,0.8366738103276656,0.847067602687408,0.8502242503429835,0.8514486124158793,0.8633919777789574,0.8513080632947627,0.8117102482995722,0.7986755173622964,0.7736992647763841,0.7695640758035864,0.8009329852791423,0.8114101959076541,0.8053145130536485,0.819413108459865,0.7853176132371025,0.7266961303750468,0.6688179973265469,0.6096123691220163,0.546028564756659,0.486066506638795,0.42243808549588024,0.35313526558444064,0.29130708362973134,0.22957246759774863,0.16026410786601786,0.09653622262209316,0.04671303192297849,0.036401855668205085,0.08503147634454944,0.15336377358767384,0.2118906661896156,0.277204436027374,0.3466400497391864,0.416088081106607,0.4855361124740276,0.5549841438414482,0.6242202096332035,0.6846387387973749,0.747798334300573,0.8115600754760872,0.8711629876168034,0.9155007517556522,0.8867168906075782,0.8665777116156801,0.8568368712583965,0.8528238399077228,0.8662351622846018,0.8843840362360069,0.9003471202156823,0.9279129155397952,0.9539906329793424,0.9658835539948152,0.9533106746157443,0.9182796737229002,0.8922115084412563,0.8661384385326016,0.8503077266124937,0.8379869094643873,0.8395089055125244,0.8383916998885277,0.8464219478363169,0.8502215626014267,0.849585094408269,0.8321166694223825,0.8060023755081813,0.7859068990244151,0.7604579389542998,0.7743524491648324,0.8093723848874328,0.8254361512171315,0.8085381002602228,0.8101685407395438,0.7714733470168107,0.713981795142947,0.6520847037707753,0.5943279635328138,0.526070512885259,0.46688497550826424,0.40236043016598577,0.33309416946740456,0.27222197453074837,0.20949706602910245,0.1401235354097521,0.07137410402186695,0.030994194842671297,0.05602700060684174,0.11875681924635928,0.17109036757659202,PM
0.4324793287269737,0.4370980823598034,0.41715697795515694,0.38840008038486507,0.35453266120993576,0.3272034049037018,0.2967346291124655,0.2687982113223739,0.24150580089545093,0.20760479199077397,0.18590142457344383,0.19046974499710778,0.19076833128179294,0.19355656556140644,0.19859230918159132,0.19145292011776638,0.19112813153137376,0.1981421123935252,0.19459672659192706,0.19464127460055036,0.19999707027718183,0.19999987735831382,0.1947105595401264,0.19079542967319596,0.1938534125333462,0.20509311342902814,0.22043149948382013,0.23404161833540704,0.23725138922457423,0.23112460982140193,0.21533492537785737,0.19971430163361004,0.18236047947220224,0.17371369005534376,0.17212074640300878,0.1714422589245881,0.16245872980420373,0.15087203067350186,0.1400241195844767,0.14303596697441368,0.15439414808889929,0.17606249417517938,0.197158092692445,0.21497129988386265,0.24065690909306636,0.2686525288040633,0.2972530667815232,0.3259443907918933,0.3521319308953863,0.38017711023291434,0.4132612827385418,0.44051058629824125,0.46461005206059625,0.4613846992690245,0.430207497098656,0.4028286041896798,0.3691919028473205,0.33685857087910853,0.3092578689290004,0.2820629504883556,0.25147425619930575,0.22369660828742788,0.19653074058591846,0.16889053759113182,0.1711447855421917,0.17378367380810134,0.18651111195800274,0.19033657866273157,0.18066844354932265,0.17581632286465476,0.1823579901446093,0.1923073776789299,0.19977679447800978,0.199385572851964,0.1919312413822034,0.19076163483289488,0.19253372458742923,0.1997190045725461,0.20522841325522156,0.20903121338774167,0.20283377071449138,0.20729488438924482,0.20402426392627548,0.21347804098363876,0.21874580260694354,0.22427085065184693,0.22888859659730731,0.24116411207387056,0.25650201085991875,0.27270597548650266,0.2816317486651516,0.2786447069706428,0.26563064083844323,0.2494967415926821,0.23211433252020885,0.21355726334963832,0.19614070950424467,0.17873548882291335,0.16537530506530773,0.16899604066188822,0.17023206119632528,0.16692315836689864,0.18068179683030783,0.19019866129599738,0.18724612741765756,0.19395914803611336,0.21310472801329583,0.23469757656927293,0.2606020761125758,0.28890133510843063,0.3171976040000597,0.34582571686350083,0.3746277180238382,0.4025963480967749,0.4332828441698855,0.45923326004083886,0.4660688375456745,0.4434491337329731,0.41006700782739824,0.3827051654925424,0.3492407771589241,0.3226440964275661,0.29702492713774054,0.2647272251249799,0.23713401024793845,0.20792084449944803,0.18850318293545754,0.19614525222203927,0.19871501241651912,0.19203140328523194,0.19868763206679474,0.20007736991367708,0.20086318285347704,0.2082536607962011,0.2093977040683701,0.20942890978619766,0.21392151090514133,0.21619734452085027,0.20967015512541098,0.21447653205958073,0.21752014824809573,0.21067168022426785,0.2182925994770999,0.2281956631753428,0.2363397916673029,0.23656806276288278,0.22905421591125585,0.22475624934218996,0.21858165179230515,0.21094149595765654,0.18944990108003235,0.16571276929017742,0.1463383962489775,0.12319273437496081,0.09670041753468683,0.07059925739860451,0.0473394442092574,0.02400176371607321,0.0,0.0003466099180424731,0.020314418320726224,0.03894044087229953,0.060206838233834326,0.07805581394126904,0.09193379522548151,0.10623674065479505,0.11562631434103432,0.12471771618521377,0.1383486370623901,0.15474711416861764,0.17685426876693566,0.20158733386878325,0.22815548189170998,0.2573945560730879,0.28595823528415854,0.3138812991107367,0.3427474332855298,0.3740316485993014,0.40812389593092924,0.4355951523392889,0.4691758319756343,0.5014733243865033,0.5297842301433109,0.5638847505821805,0.5914711059746505,0.6246944343692746,0.6588866600584093,0.6863953236366052,0.7198298523413076,0.7499684840872485,0.7802406664546648,0.8114999572692838,0.831691967722306,0.8569681849169792,0.8915635302407763,0.9263867250801372,0.9585754049357078,0.984634213756522,1.0,0.9889667034073155,0.9627426976981446,0.9304014845800852,0.9029702916729798,0.868940444929887,0.8344956612435639,0.8066509063724014,0.77376779406812,0.7389397915453162,0.7041097094148623,0.6692796272844084,0.6346137941133418,0.6058709378519116,0.5740959808551052,0.5392789954501771,0.5044489133197232,0.4696188311892695,0.4347887490588158,0.39995866692836257,0.36525373275789375,0.3362859578013697,0.30477185490503333,0.26995803509412974,0.23512795296367717,0.20037065126708087,0.17064287554592772,0.13993554414962128,0.10838287455574624,0.11417260826432041,0.13809837651506407,0.15587558883213903,0.17576796709457976,0.1906445960085481,0.19880377785043746,0.19298492284692914,0.1993910441417992,0.19461848119038194,0.1898877546749389,0.1827117065976498,0.18875845943384117,0.1909045393363935,0.1969137681267421,0.19832687715447417,0.19119582849607597,0.19513523187964377,0.20586166172413733,0.20133011877997586,0.19121208767157727,0.1880840493272531,0.1830631661832165,0.19303687972689487,0.20529980844892837,0.21726013597487892,0.21184207301835745,0.20316209478903513,0.1947758261296464,PM
0.013161067403891558,0.0,0.01050038692311972,0.07589804254615462,0.16230992649515397,0.26709991829954305,0.3447308994208873,0.38502686004564524,0.4513411097725504,0.5383419894080692,0.6434688633371817,0.7486295469034703,0.8442559029235088,0.9221121025048813,1.0,0.942692174339764,0.8589284735507903,0.7759484702843702,0.7163116321822827,0.6641854016031843,0.6369680071576704,0.6289486985831498,0.6004860939495194,0.5985671012218754,0.5724331089407624,0.5617384237997243,0.561675892196587,0.5423076782172567,0.5244452165069919,0.525595829171217,0.5518440833942595,0.5281108192333326,0.5242834973878177,0.5336616628324551,0.5802559811150516,0.5852452433776367,0.5281118834162317,0.5358402296170404,0.5435004234033398,0.5244834370864409,0.5214340149414118,0.49005183554843157,0.5016387510304794,0.5573673879230832,0.5571711291196202,0.5324356773595973,0.5362231236173622,0.5242787895399692,0.5053811991420663,0.48638101758150043,0.46014169677235284,0.46907797375305815,0.522242471892481,0.5242791369484809,0.5330864029135869,0.5604589034110878,0.5342587576924442,0.4905951389367802,0.45987940825763296,0.41369573410872196,0.4205737325155532,0.4845929062709722,0.551568413334854,0.5400812181974102,0.4964808808154082,0.503277013392248,0.4610684457937939,0.43873876226143604,0.3590271812353123,0.3373693181039883,0.3674530614252438,0.4654960529264365,0.5424510104760989,0.6270357544752114,0.7076382886856942,0.8123828486992482,0.905921588638952,0.8749250227620777,0.8269747743479545,0.7655814642312304,0.6675568299544201,0.6368679494005578,0.6257626512056333,0.6028266675813461,0.6336575470462265,0.6386364034222511,0.6538948747151769,0.6378188383355967,0.6567113331317289,0.6365800763494578,0.6065613481637167,0.5991904551655534,0.5991854050182583,0.6028220078893805,0.6342424478242492,0.6388982521340987,0.6688326609907644,0.6740795486269704,0.6643359007815075,0.6373437488169573,0.6366386132271744,0.6366386473231511,0.6378850366855913,0.6662589682929294,0.6740893340747407,0.6674580751180583,0.6383276684875714,0.6228208393202577,0.6043573933608215,0.6351196950710971,0.6356966184703285,0.6069310937052341,0.599335136463961,0.6158072713831846,0.636581899974141,0.6393585860534996,0.6634484293371745,0.6056642368272085,0.5261471269524671,0.4856780955284439,0.4542820476771334,0.46176482671954133,0.5183572450935037,0.5242532342184179,0.5143029237733732,0.4566227349999892,0.3632716828827913,0.336516999590744,0.2967802284757628,0.26245610141207365,0.27844842567007166,0.3718877230206221,0.4768469230618564,0.5632354168554459,0.6499781828806324,0.755104001295738,0.8602648197924445,0.9530683512073912,0.9268912961814424,0.8241525612874545,0.727726243333497,0.6794162006008015,0.6553858901794776,0.6088604999583316,0.6135141946802607,0.6022994549915701,0.5991837223553835,0.5930714591570281,0.5636257169711563,0.5489629037467507,0.5251805651397428,0.5435414506607543,0.5278965140551977,0.5567862645339661,0.5479579198861808,0.4996981997033476,0.5029510874310459,0.5691845253151708,0.607550247032612,0.6218923312679019,0.6003023861293775,0.6274683220366857,0.6356748366143465,0.6070605820042596,0.6146978810811712,0.6019286717611179,0.6117837811314724,0.6044450957273328,0.6215173140672228,0.608420000044207,0.5991928324292539,0.5976347375883364,0.5694159441982292,0.5954454117029018,0.5985847649254996,0.5727056970375966,0.5767737457350197,0.5990026608270353,0.5991820290023071,0.5991820290023071,0.5987621429617063,0.5740024039683487,0.5379222117306757,0.46644265995367373,0.4139584788521482,0.4325346445486238,0.5013515678293876,0.5885486249631704,0.5991265539265136,0.5809746991108549,0.5336173723605979,0.4954702177317545,0.42755676092877337,0.37973523666905695,0.38649306106869563,0.45267187813105725,0.523348396975523,0.5940563184659675,0.6764451738592969,0.7811467400366254,0.8507756524154226,0.8131124646521926,0.752019677109657,0.682238819278755,0.6370691531607866,0.5912334047234102,0.5632553139727765,0.5808792251762442,0.5625971960381966,0.5866543195945502,0.5938362036450959,0.5639624252137887,0.5617282001818555,0.5648881510811279,0.5759280430227074,0.561887240431667,0.5693364399675414,0.6150693171013364,0.6365847232443214,0.6366503669810095,0.6457415294404347,0.6467337888187119,0.654899759130954,0.6275414127556393,0.6122079047725348,0.6177308836223716,0.6196927230554365,0.6100434391506182,0.6143479496228101,0.6364190754765486,0.6173385196491816,0.5987095084976151,0.5722285877037345,0.5772732374400489,0.5766156160244238,0.5858948762494016,0.5696554239715574,0.5631539381382415,0.5915326354659491,0.5758165757541942,0.5644754621629442,0.5949518283161614,0.6066841060340247,0.6353601706623602,0.6038313194782168,0.5616099061971713,0.5072507749153461,0.4362680460315893,0.4132579027231218,0.44555146430978265,0.5239979081876109,0.5843097667377917,0.570431681203984,0.5579862956761188,0.5032662016260065,PM
0.5523838556515743,0.5687890639068813,0.5874291815243522,0.5545716398467606,0.5751423356843253,0.5853031151664876,0.5536887350410202,0.5523125905148936,0.5522083695841147,0.5314067309465793,0.5125925062411261,0.51250907508292,0.512513677960488,0.5200908432371705,0.5638917478075705,0.591873930690932,0.5938884324803739,0.6243230556036492,0.5991774137840293,0.6260594591199462,0.6564887022682964,0.6717195690497597,0.6717211276620967,0.6650982179193248,0.6394800674120509,0.6699744080334851,0.6723224086706239,0.6979970781610083,0.6835784949025685,0.671765519680875,0.674058154958459,0.7074450156706424,0.7049809685496502,0.6732061141384378,0.6827416963717425,0.7289948359625864,0.7509444647966923,0.7235152623183279,0.7071406404833667,0.6469198695861778,0.6003188303815916,0.5677393183573152,0.5387341618669481,0.5130684541786268,0.51250907508292,0.51250907508292,0.5128258098961016,0.5363990824547908,0.552306378511954,0.552312453527481,0.552312453527481,0.552312453527481,0.552312453527481,0.552312453527481,0.552312453527481,0.5526049239124102,0.5759738676285284,0.5850247017148646,0.5535997654707616,0.5523125570290821,0.552312453527481,0.552312453527481,0.552312453527481,0.552312453527481,0.552312453527481,0.552312453527481,0.552312453527481,0.5523111749782972,0.5460893027583502,0.514085066134526,0.5229263236778419,0.5520006149341379,0.5537049113265224,0.5853833513698055,0.5882223621831226,0.5549538054143932,0.5491980230301028,0.5164179083079494,0.5178593694301421,0.5500818020916967,0.552312453527481,0.552312453527481,0.552312453527481,0.5523128431805651,0.5543600508893398,0.5845182737991523,0.54996827767377,0.46966838606508254,0.372497066294744,0.2855656072656334,0.2168927255362485,0.12058379101720185,0.04017816800348939,0.0,0.037493875276849664,0.11532652710850932,0.20741322758319658,0.2723340273123789,0.3671877208402279,0.46443283758909804,0.5615068060943003,0.6363942427381977,0.7143985456089075,0.7775007541363248,0.8060572029902238,0.7497530571963225,0.6862921746970834,0.605794702552334,0.5737483319194192,0.5523964975665034,0.5360965156967161,0.5127906323402351,0.4984870202230125,0.4749648829576385,0.5075207431214404,0.5389699135890433,0.5523097381325481,0.5523687157151764,0.5658395494353394,0.5919063141820606,0.5921158319720421,0.5921158319720421,0.5921931405453451,0.6078673176405553,0.5978182491243782,0.5909576804190539,0.559464655408993,0.5656102955807718,0.5761397715371395,0.5526453646261649,0.552312453527481,0.552312453527481,0.5523126209565401,0.5537701278882032,0.5888945400803598,0.6284277675040428,0.6320163808608665,0.6535386276704456,0.6653148370761572,0.6334251487914981,0.6335868507632219,0.6658210433518388,0.6520265397004348,0.6351743202573994,0.6681521725484183,0.6717232737982268,0.6785562715317628,0.7039296146220639,0.6732525450869709,0.6717233651231682,0.6760239207488601,0.7086502561102588,0.7028069862304083,0.6807768391031512,0.7039296420195464,0.6730422533754492,0.6717227045394232,0.6717225888611642,0.6717225888611642,0.6717225888611642,0.6717225888611642,0.6717225888611642,0.6717225888611642,0.6717225888611642,0.6686347953647598,0.6377002903380351,0.6664378305880501,0.6717217364950425,0.6716556295116751,0.6527079085182219,0.6320122081137214,0.6319192104166031,0.6319192104166031,0.6319574875111433,0.6432972991497383,0.6714432768346903,0.671793009526449,0.6880484272812009,0.7113713939146846,0.7115065274364021,0.6949303111216665,0.6652342689672119,0.6333487973255165,0.6431663911727874,0.6714390227982969,0.6732687213724722,0.7053028165365927,0.7115246887565414,0.711525991659042,0.7126029875374851,0.7421728529074203,0.7036438551013022,0.6078809394614533,0.5127058545713696,0.44758239420188506,0.35594844710723983,0.25892540077879733,0.18819110324640675,0.12382799351511764,0.11654191405457759,0.1763483048425485,0.26239168548014913,0.33111103623978,0.4280634761083828,0.5253085928572512,0.6224978300799808,0.7063473721366469,0.7774515674330322,0.8744856814081645,0.970771055123901,1.0,0.9386866334313559,0.8724604849314561,0.8224062277604256,0.7553292376127718,0.7065438628375089,0.6729779835489982,0.6713854537931816,0.6415938881303962,0.633626194648512,0.6658716639794058,0.651874778387536,0.6320079988365999,0.6319192104166031,0.6319192104166031,0.6319192104166031,0.6319192104166031,0.6319192104166031,0.6316295035038442,0.6036989851547601,0.6178548413839415,0.6230376793075969,0.5931847640610508,0.5921158532811956,0.5919553186459794,0.5683357251894439,0.5523813435465401,0.5523130319187777,0.5565701017309452,0.589215298097777,0.592115889811172,0.5932818217740605,0.6239452334619102,0.6169518791683029,0.6041261316525235,0.6292829206536128,0.5988579915134418,0.6259110613023777,0.6319180292806905,0.6319192104166031,0.6319192104166031,0.6319199471044668,0.6384484102000858,0.6702154104589386,0.6717225888611642,PM
0.08150577771228829,0.06943402469249893,0.0836549393901338,0.11704007497163449,0.052881078122521075,0.0,0.008562581523986701,0.08949533242705598,0.16601770415795247,0.26395963045913806,0.3681902239844126,0.4679288496836804,0.5424370393717215,0.645227714048632,0.749068452377224,0.8292032013885908,0.8664126356259443,0.8017786007074594,0.7207535683419737,0.6797606154989433,0.641900005810565,0.6148146556188543,0.6045378988686014,0.6095789961390174,0.6290525991400155,0.6054224773964734,0.6304410641538611,0.6520227833773031,0.6754512044765075,0.6758690681359703,0.6758845725829215,0.6848778671179705,0.7320701737045692,0.7842270608300703,0.8350531167398847,0.8705164942125672,0.8947488863019926,0.9242258110488413,0.9260647330774878,0.9512574545749795,0.9612783959897451,0.9612964989826249,0.9612964989826249,0.9612964989826249,0.9612964989826249,0.9612964989826249,0.9607162310823112,0.9363067569182997,0.9252746824336038,0.9019192362741348,0.8672880503272031,0.8458788475348529,0.819400458576605,0.818581242192618,0.8118606440092,0.7844457916117813,0.7772623226907767,0.7288227775309553,0.663415454046131,0.5972285956018473,0.49554296911388906,0.40238491799312204,0.3223095991802394,0.2186057643316639,0.1372155764037153,0.10631462393225544,0.1435794924195397,0.24174016995036585,0.31709724472504686,0.4171664008958267,0.5214022182883209,0.6239758316664181,0.7006364153191784,0.7984364061892295,0.9017333410678585,0.978402468236899,1.0,0.932606601787362,0.8707379759496874,0.8352967479737137,0.8123044207194106,0.7845679599602944,0.7829045949164533,0.7829043547034642,0.7829043547034642,0.7829043547034642,0.7829043547034642,0.7828898208622466,0.7734481517134331,0.7609410153380507,0.7746771749113677,0.7469949867668308,0.7164755956380331,0.682700568817423,0.6758797358105504,0.6758690681359703,0.6758690681359703,0.6758690681359703,0.6758690681359703,0.6755053392234585,0.6524257537551668,0.6407908305805163,0.6666290720525492,0.6790305138408437,0.7086554521654236,0.7115469364948286,0.7105598973179186,0.6780698579222708,0.6372089960130589,0.6023278980448525,0.5713112777670375,0.5566656297930708,0.5336356641904194,0.547880912495259,0.5671271243459115,0.5358777662669967,0.4932891568374522,0.40633039698942763,0.33027794508639907,0.23342665328157253,0.15598918039567966,0.08044326565171112,0.076958420050393,0.129847456832775,0.2275816646024138,0.33181270176942856,0.43174413974524395,0.5060861008529773,0.6088497481919086,0.7130652578980579,0.8062478758486122,0.8823939171177253,0.8737811096646091,0.8039584766498331,0.7408904647806187,0.6852948819971303,0.6507039529509999,0.6402104968222231,0.6402748307710615,0.6544344968053624,0.6889504797754418,0.7113418645521765,0.7235819225393056,0.7703097817455049,0.7929807740340964,0.817921313538557,0.8185827835592976,0.8185827835592976,0.8185820629203313,0.8151233172923682,0.7858368553195776,0.7826493456842103,0.7602341640845536,0.7472679648391081,0.7472482017759061,0.7586877964542778,0.7824308749836213,0.7767496365939195,0.7492800407700413,0.7675106049024469,0.7973810572003428,0.7855196693010011,0.7997599827057966,0.8181691280249783,0.7953327050790318,0.7829252226316861,0.7746218061918535,0.7480234613065342,0.7278704828282736,0.7116976912039128,0.7055346342423938,0.6768630025233442,0.6489008042911237,0.6211907747605911,0.5296061495884405,0.4494639776364018,0.35628128962372596,0.25410621215715157,0.1799700134240041,0.08072034661594962,0.035081072726256046,0.06061893668120888,0.13714442305286667,0.23134315584057585,0.3101732886166495,0.4136675948974222,0.517904383150749,0.6207800644271595,0.6978478069379213,0.7949345947874011,0.8924619955846511,0.883530999894945,0.8157632100073213,0.7639433350754796,0.728556539450147,0.7218247924117795,0.7456593794448754,0.7199168925686354,0.7133464865181827,0.7410712077380879,0.7472244445342016,0.7472255254926523,0.7449013024618072,0.7150054253076883,0.7245572130357978,0.7469704664290253,0.7472242843922103,0.7405023049841057,0.7069355369620114,0.6776537407651144,0.6758693283667068,0.6758690681359703,0.6758690681359703,0.6758690681359703,0.6758690681359703,0.6758690681359703,0.6758690681359703,0.6758927950959528,0.6878302634570241,0.6918011475888353,0.6760207036260129,0.6758690681359703,0.6750181265009019,0.6489454056818476,0.6358955452993351,0.6070821695091961,0.6045126007704127,0.604511890140321,0.6024712977587541,0.5722754210817973,0.5381095753201901,0.45900201927228235,0.37016903603537,0.2724952690491982,0.19583592649687986,0.09856573892550724,0.02806318087596882,0.005694469589243134,0.057783066566143404,0.139202394151007,0.22416278118298738,0.3283191964579819,0.43255617487992115,0.5367931533018622,0.6410301317238023,0.7452482199581318,0.8390648176622397,0.878757021338294,0.8124898437731414,0.7513698883049642,0.688249434182616,0.6724283787077727,0.6431231398962511,0.640191089679492,0.6401906392801386,PM
0.7122667255583544,0.689980378598599,0.6875021342623322,0.6656358904014237,0.6736550319541319,0.6605758714858778,0.6795070638401297,0.7038085987658018,0.7272786639310711,0.7025798353773238,0.6277261991865926,0.5697573444454846,0.5039571843634771,0.4279712874545707,0.36152007619357196,0.30417238003061,0.23300484653914033,0.20651539077954784,0.16768702542046388,0.11490261179504735,0.06124638411650363,0.023118836602954662,0.0012925542822719294,0.0,0.02246950265097425,0.09457278854039242,0.16251588020080998,0.21210062334807844,0.22976495112565587,0.24801971678467094,0.2377278472508051,0.2641103425423541,0.31638896210013456,0.3875684859994726,0.45386139603134446,0.511358559467566,0.5871650092931979,0.6538341982869635,0.7108827819792713,0.7739539849265702,0.8324598162547474,0.8773282333221708,0.8815823627157577,0.8633016563567315,0.8921974181927652,0.9296200281568199,0.9553434647601105,0.9764866310952254,0.9988864178765304,1.0,0.9772368316045394,0.9758685471175239,0.9754520613201585,0.952298666948697,0.9201308165355426,0.8944541501928933,0.866822231079361,0.8349833028413443,0.8190077513145395,0.7928860318151525,0.7436301154778127,0.6826515518930751,0.6402138546928455,0.6262203610007715,0.5916862024635456,0.5741538218883715,0.582474875270556,0.6023432204684216,0.6015767695894185,0.5781420549389438,0.5630026413732985,0.544581252141894,0.5212392998820929,0.5310794363078326,0.5452615832794008,0.5466912919809168,0.5695422445573604,0.5739831020433241,0.573983839394197,0.574028693090451,0.5833964018931974,0.6024107095776818,0.6009540227511527,0.5772317065555308,0.5739856901448865,0.5739844366484039,0.5757063366502875,0.5991287302941632,0.6026898899458626,0.6026927582407575,0.608131910743821,0.6334381903558395,0.6579366432763694,0.6574856886693485,0.6334500411970092,0.6313997009869787,0.63607376276296,0.6593178556079691,0.6459072578611158,0.6107954655364907,0.6046471280340038,0.6284575276840956,0.6313967884510321,0.6332465572658386,0.6569953408638503,0.6709262154793114,0.6652161995150436,0.6853562060735019,0.6888080416008622,0.6887962734809374,0.6773387202448298,0.6630257307782861,0.6867528290383369,0.6940260691278404,0.7169375329539527,0.7251789317465196,0.7458129657494847,0.7462201427041943,0.7462104981547819,0.7365040998816497,0.7177754059339474,0.7040444959389722,0.6869801503686146,0.6575167941274946,0.6320946369762215,0.6118230684829298,0.6234630947466329,0.6313884195186299,0.6313959404975291,0.6313959404975291,0.6313976437780449,0.6343260398579513,0.6581513835654276,0.6601019910491956,0.6603774914614018,0.6786568952956369,0.6673704673242966,0.653899340536209,0.6279872101784143,0.6041787575032016,0.6026936504353122,0.6097509707181246,0.6316194783728548,0.6529730063269588,0.666777363222673,0.6921803470986259,0.7156557123871172,0.6947906658298386,0.6922788992359861,0.7108088954266218,0.6745308096071296,0.604881762559061,0.5287975315125157,0.4640601602281853,0.4051409294132089,0.3337863135133796,0.28044621818075477,0.21295453496856176,0.2009789252061598,0.22075048092398575,0.29215823207150393,0.3682547621306034,0.43996448967804014,0.49271224967381944,0.5665557046003844,0.6200260383702849,0.6894693834802368,0.741772344083091,0.7964287521644966,0.773084118643288,0.7474479607122362,0.7581905181176589,0.7747889727381931,0.7749278670423401,0.7777927390561006,0.8017638170638683,0.8187712032523633,0.8314470837137868,0.8081511821725025,0.8011042781746909,0.7763911925372753,0.7469279795377206,0.7091583650267985,0.6884793845235624,0.6653835721363563,0.6601047856090023,0.6595481998226447,0.637058842945784,0.6313957561598107,0.6260739104755579,0.604944126638598,0.6262027546489932,0.6315290981298194,0.6473636065351878,0.6600886892394566,0.6601019910491956,0.6601019910491956,0.6601019910491956,0.6601046971268971,0.6651929114558097,0.6882196251437032,0.696345774074488,0.717092739839404,0.7115693152922891,0.6856604055189548,0.6616586865835901,0.6601057515386453,0.6668770808006359,0.6883322519454733,0.6833786414343619,0.6611708160812642,0.6636683117477489,0.6890546306026692,0.7141642195054247,0.7293869726727191,0.7460782677651991,0.745945616757342,0.7269902082117108,0.7175602200567441,0.7175140921525278,0.7175245422337824,0.7252002971322913,0.7354655333313289,0.7176953571890188,0.7248318130498888,0.7502745280170631,0.774013567569618,0.7613988539150229,0.7371660876965525,0.7178724934255811,0.7175140921525278,0.7175110542669332,0.7122350101883681,0.6899276235053327,0.6888086241080504,0.6905230024150564,0.7108212534272438,0.6906888041367516,0.6888089485424347,0.6859555249030516,0.6620731908878268,0.6601030749549786,0.6601033551483102,0.6623012244675213,0.6859540272868871,0.6685032109007683,0.6764166773271922,0.6609972648019005,0.6601019910491956,0.6602551524222999,0.6736550319541319,0.6656358904014237,0.6875021342623331,0.6884823170193979,0.6693806116154377,PM
0.8391323906763977,0.8281963452597867,0.830842363635266,0.8393922787693682,0.8535431538345031,0.8512117345949863,0.8469305541910619,0.8110148448996859,0.772508930506572,0.7219149606201669,0.6652453700762608,0.6081813893288577,0.5495240270522608,0.4720822700338534,0.4103309611090542,0.34927499821825325,0.29282897011445996,0.2551672412901418,0.24752369578843947,0.2725309180342661,0.3523735157608434,0.4176923544556965,0.4770689443057674,0.5407120015874702,0.5891177505722882,0.5939866625712065,0.6475987958736908,0.7121174930466467,0.719949757107313,0.7493122634219485,0.8041106068115105,0.8381538965933841,0.8391983104702718,0.8407036256684788,0.8485371527074768,0.8393121390148042,0.8451848392639403,0.8881018344143503,0.9423067859376357,0.9125671613747781,0.8400799683920099,0.7671342246500514,0.681328171769874,0.5954283247787941,0.5098283361295519,0.44142318270773373,0.3634354317094859,0.27756860894458635,0.1916767409280098,0.111411893773389,0.04704539001654107,0.0,0.02371055192678284,0.09814535485944287,0.16441511051601676,0.2450053177160343,0.32027921610945365,0.39130836298073257,0.47644822798812747,0.5440916989091931,0.6227381393762896,0.6926341429255056,0.7650305919543237,0.8238000887859926,0.8555946946522277,0.8318936810363255,0.8139315925083177,0.8134422855879309,0.805374387151399,0.7946986918987853,0.8127940779323031,0.813458509872429,0.8138504149259611,0.830193883351233,0.8402955279313118,0.8621876374770792,0.8814373651898086,0.8628444411180607,0.8302787921341808,0.8120176686936351,0.7908968304669801,0.7866163607172685,0.7698514430709724,0.7860186390662913,0.7877184428500281,0.7877188165743383,0.7879250640252073,0.8021606428466312,0.8165638256139487,0.8375327321020829,0.839197804628578,0.8391981608345627,0.8391981608345627,0.8391866043869576,0.8326237993791641,0.8140779367998454,0.8134585733763644,0.8134584887044505,0.8134585295805468,0.8139210251626836,0.8310670715476731,0.8392073334935195,0.8453228962389905,0.8411415498553398,0.8064125377255649,0.7674572421382568,0.7335778289270922,0.7126046405422897,0.7421363250695436,0.794726766220037,0.8147585813904379,0.8351295734157236,0.8392823893961681,0.8516335510607269,0.8529805925087603,0.8581468429019776,0.8907808247237035,0.9417027852107798,0.9999999999999996,0.9394472122569151,0.853633041120117,0.7696699352285976,0.7048628194405988,0.6216704977542773,0.5357728493713578,0.44987300238027705,0.36398733531707617,0.2853310627725776,0.2173799868421935,0.13202764438794157,0.05349336431645302,0.0004208364827120725,0.0007552795692236103,0.05417666219884598,0.1326036717332939,0.20283029658515517,0.27900206222695356,0.3645419920630988,0.43469312821579065,0.5109612416639524,0.5949904943724964,0.6604489792384349,0.742901680520252,0.8269168322834424,0.8916929523923085,0.9376598147359929,0.9147280885382885,0.8921615658405115,0.8882657985864504,0.867346441994584,0.8649388575402397,0.8624778025752637,0.8480361021999605,0.8648653997987075,0.8839788903813779,0.8906682129490693,0.8936383217715478,0.9064108416992611,0.8900762277854919,0.8696867692677732,0.8480701588084893,0.8162531693543325,0.7979905476327169,0.8132105424909732,0.8155772243059194,0.8368878814437068,0.8631033199213687,0.8899362269467903,0.9083790667737914,0.9357523257250215,0.9443315693704464,0.9650704666463947,0.9681047709884978,0.9823671853076239,0.9918505100148951,0.9708921132316424,0.9563580984923257,0.9514129146666179,0.9502060741817373,0.9231333346103345,0.9164338245554036,0.9164121397282767,0.9115409436289865,0.8915025813957258,0.8736893628240803,0.8654463697362256,0.8825780929292448,0.8873527130884571,0.8497572766431287,0.7980194037621398,0.7556531864274558,0.7366697514839493,0.7494219599480183,0.803906233003008,0.8481825034458024,0.8498986651081091,0.8647232321255269,0.864937832964674,0.8649380088778753,0.8665306897885041,0.8969812396034995,0.9473392396658427,0.9166833495855564,0.8520279971096429,0.7679342309669601,0.6820347510048173,0.596148686444606,0.5173892670154419,0.4495286594969694,0.3641749709367459,0.2782751881795309,0.1932187760935533,0.12641689675090628,0.053921891700517754,0.02444700958827184,0.06766981622856205,0.14897677717321178,0.21533283767564315,0.29584158828419094,0.3779546095250468,0.4432592465529317,0.5277945862081848,0.6098364567383538,0.675196871555837,0.7569708892538913,0.8216837898296014,0.8901291998528253,0.9156594940585427,0.91410884429455,0.8931418761400685,0.8906786573294032,0.8883076612973517,0.8692978024984401,0.8873769188229672,0.8916802310422791,0.9113960603271116,0.917010109776236,0.9355733026616702,0.9549463710361832,0.9471857595864468,0.9416899565451886,0.9236763025246915,0.9100934278325714,0.875058659620819,0.8716347683177648,0.8900461976290059,0.8906775050947862,0.8906775926864214,0.891307413965992,0.909925651274841,0.9164530003402356,0.9254546002614306,0.9419312302444482,0.9490356739664452,0.9673242558807629,PM
0.868432175738242,0.8659903926858168,0.8869660047269736,0.8959562771468383,0.8952715185180726,0.878133085471744,0.8686746086444508,0.8931922744660996,0.8839809058418826,0.887038928550941,0.9020584421570699,0.8961930511383911,0.8891845610506581,0.8448710281714313,0.7913928773674517,0.7687104337591117,0.7683440670518946,0.7634754604080451,0.7223495781940414,0.644973860343983,0.5659596282219788,0.48713989800338453,0.42620392994705947,0.41311486313907375,0.4131851012191885,0.4220207179147901,0.47105914523970727,0.5493529670405173,0.6283675589709312,0.7068938983117095,0.7572776200144267,0.7533947611760601,0.7586164415323071,0.8054575004886892,0.8598280041599575,0.9088622873744443,0.9068651939080601,0.9064233927445065,0.8877746210458315,0.8349536615121509,0.7709050784792719,0.7055831949796474,0.6417735903815167,0.5665864329786223,0.4998551707836092,0.42753034784289534,0.34905046869993717,0.28324564352887194,0.20983740177193866,0.13086847565131166,0.061022960931499615,0.05495420362128156,0.10845739677856336,0.18664463019254107,0.26089005921655417,0.3259743637844994,0.404366310571894,0.4831837095458211,0.551595840949159,0.6221070143190093,0.6941087385848741,0.7598693005877473,0.8221827456943176,0.8705217794130387,0.8938406423188536,0.9060310212999894,0.8814058086988372,0.8607950216918203,0.8808893003148532,0.888005241871638,0.8959252338652068,0.8960092095747343,0.8974271909048217,0.9242899508750924,0.932073797746281,0.9094383556522172,0.8739239087728747,0.866724525679027,0.8816266807051165,0.8954312609101391,0.8959210568941658,0.8870992297854379,0.879808598468848,0.8978216352456547,0.9141424862220746,0.9128924358612416,0.8978435111034693,0.9131034000381071,0.9221940049844437,0.9119177839989199,0.9009185676792377,0.8938182407918593,0.8598205057517805,0.829982748786473,0.833484854907363,0.8783074743035373,0.9260014660061513,0.9286186145874518,0.918626281937247,0.8988248773951453,0.8445331629815116,0.7789421710507858,0.7124985822563055,0.6401686711538237,0.5657614792520991,0.5007382510332832,0.4225063696065243,0.3490049037985954,0.28329902237631543,0.20480470060862555,0.13228620232604404,0.06601975694645335,0.004235907983050069,0.0,0.056965156780670156,0.1351995900183769,0.20359399711569504,0.2741666293840077,0.35310536137834214,0.4321200197506503,0.5111275835779674,0.5862672288098145,0.6505787700601204,0.7242580451447425,0.7885480656468467,0.8478499245041786,0.8893359484425654,0.9048572784755939,0.9028711136003222,0.8989056102322981,0.9118272047720959,0.9228515617660968,0.9344703664897116,0.9346827130892721,0.9363354157142054,0.9514017938834232,0.9423084761066423,0.9450182785611201,0.9339307672759216,0.9132632794757445,0.8968003927768944,0.9029210210291936,0.9094440909831447,0.8964864427960175,0.8960088783874482,0.8964173749377653,0.9094986008199717,0.9153471340691044,0.9205947502953586,0.9337073080634624,0.9214637948431759,0.9181075423046856,0.9209668116079399,0.8739335036913647,0.8551100882584484,0.8437109753680159,0.8816297740269756,0.9160316683917271,0.9323188209171134,0.9293448992231483,0.8774861310576374,0.8148304797065888,0.7518637429426138,0.6755654504084303,0.606130595013417,0.536637280942895,0.45775049434742865,0.3787358359751205,0.29972406467531787,0.2238450435154018,0.1599871983645329,0.09544538558769489,0.050793886288210466,0.030463482229127425,0.07964639963541709,0.151500380161953,0.21816700448576798,0.2968392207498973,0.3745682213193975,0.4382675160527083,0.5145489155648599,0.5930434678501442,0.6586976331206458,0.7321111478406568,0.801088120558521,0.8683378231826153,0.9245257899346067,0.953577989325054,0.9675407552971178,0.9502923085765169,0.9481057631648078,0.9670263592620154,0.9664709266570548,0.9596210650012993,0.986738475261987,0.994918881258398,1.0,0.9755842174098777,0.9539859871909533,0.9188840033997332,0.8821175784806643,0.8590268475247091,0.8641891614745534,0.8679334571838506,0.8700744634847153,0.8606618081481248,0.8573323212130801,0.8531745157244663,0.8397465115464722,0.8558289514890909,0.8659377544013567,0.8692156787792609,0.8709329076816426,0.8648519067844855,0.8642145008414772,0.8607368307476744,0.8695458627738786,0.843321056863152,0.8036061192565862,0.8122959333932966,0.8505100991863395,0.8930957101651047,0.9042579566382658,0.8993544397880857,0.8969855717995237,0.8413843078783785,0.7750660436056402,0.7050354542677524,0.6409834759268906,0.5667175954938726,0.502728105190303,0.42665686860865604,0.3495019004682103,0.28567741726442364,0.2089504073786297,0.13062861966278572,0.06608163217040142,0.006088221104987301,0.0024311290027174692,0.07157114082011251,0.1505638184013769,0.22887756996972364,0.29406628987422945,0.36828373564003014,0.44631679862669094,0.5108228653277336,0.5859352088081757,0.6574485681813576,0.724542062031722,0.7905338192980911,0.8497114347490049,0.8796637165045018,0.9080667152800679,0.9012329303971742,0.9057825276944427,PM
0.88155099706139,0.8903638223433739,0.8711104267380498,0.8699411499266645,0.8882202927538148,0.9070528132367943,0.927298851968249,0.8860840529696901,0.8284927499907606,0.7615682257106002,0.7049417314640551,0.6853987325148443,0.7069666702062916,0.6694982014524042,0.6194457022701185,0.5660577295920823,0.541279116520156,0.49212288532621473,0.4261967129215056,0.3681864960279322,0.3004939573840215,0.23563826163923007,0.1767096353401325,0.1085362347685821,0.040559179780484955,0.0,0.021999044939340795,0.08058346773212133,0.1461724758720646,0.20445307284559888,0.27234938998085956,0.34101424075895803,0.4076621859557201,0.4653653368367259,0.5245512311902285,0.5496751330401184,0.5871560216253611,0.6467230664482446,0.7044389450027866,0.7591054316363575,0.7915626866843433,0.7931334051660752,0.8130732220289507,0.8611230279162523,0.8736739070386685,0.8888638328095559,0.8898114091375982,0.8601086793561821,0.8728492739159781,0.897511085059737,0.9093502929601105,0.8889719371298013,0.9093556831361902,0.9410751592946685,0.968153194696795,0.9651940856191283,0.9446778276076622,0.9183447592579992,0.8875085220876346,0.8923367750641116,0.8695500140493537,0.8617076926823894,0.8742264420072272,0.8741046528752505,0.8603143910529261,0.8789024552054852,0.8947430917805861,0.881385503569067,0.8733717789843565,0.8958608691223298,0.8832937010236444,0.8722476982607061,0.8991668216313162,0.9165663919056433,0.8863935881310325,0.8430925456283942,0.8325540554245741,0.8711463932839061,0.8976683467738853,0.8757353329868283,0.8371057840480784,0.837438488922434,0.8732384634094148,0.9098949503295632,0.9513939364663189,0.9950236612722054,0.9578802881180757,0.896613627202069,0.8348416509448036,0.7701295125856127,0.7173775895838224,0.6721062780273004,0.63156515910173,0.5757690633663031,0.5084029969916983,0.45057433219488763,0.38494415592817854,0.32686148638195145,0.2607724550311481,0.19550867191993526,0.13691878619298015,0.07012503718119034,0.01922489741062461,0.011475140220922997,0.06271445411137955,0.12084660138771008,0.18837235564641297,0.2475228833964831,0.3019803060609323,0.3533054952272965,0.4212685849176161,0.48836573308287545,0.546084996050489,0.6132071957538543,0.6791976313671368,0.737343598458432,0.8015140113595554,0.831091851775912,0.8715606483503835,0.9156727989363851,0.9161111782507863,0.9161069048671175,0.9109745333868224,0.9182442447371952,0.9302331989396697,0.9547065288426453,0.9767096025535305,0.9972185406335103,0.9844791802578954,0.9614212883748168,0.9228898665323635,0.8939893385304105,0.8812508708088738,0.8702546119231098,0.8778901258585237,0.8760550209883398,0.8588101170432514,0.8836965764653735,0.8911450532566436,0.8764818961676697,0.8849024709875584,0.8950675692608259,0.8866352709408851,0.8979937341195472,0.907181778781881,0.8878155321652514,0.8861666251048035,0.8561095964027465,0.8475498238935388,0.8797824711467983,0.8893788466221169,0.9009814783193921,0.9030161235502614,0.9462011550037801,1.0000000000000002,0.9858813104248221,0.9214099732288601,0.8635170404612842,0.7961087051967926,0.7331289863331387,0.672596290828505,0.6052920958926944,0.5475920704170161,0.48083483042744035,0.41247500909107315,0.3532916975296936,0.30506154372576355,0.24818969487913844,0.18282035580554257,0.1245857814070146,0.06582077847029755,0.04388785132237771,0.08147475680836469,0.14770475865545496,0.20027740832838803,0.24688892200678714,0.2944630783635176,0.3529767528458705,0.4212699266730031,0.4898934927954208,0.5530553241773299,0.613429494099391,0.6806753723811638,0.7385643261135157,0.8028913951848551,0.8564018079505964,0.8927626823104158,0.8966997275038426,0.9013206357119026,0.8999833457742119,0.8959868199878114,0.871895622705906,0.8951067829194483,0.9235052348643984,0.9337725777015657,0.9609707092557966,0.9755269280865051,0.9723112903427642,0.9557765886383478,0.9214041315742347,0.8865337087859968,0.8589456877791319,0.8573980147807234,0.8449457109968621,0.858065257679242,0.873205613771922,0.8571938777476087,0.8635595096360997,0.880971440411179,0.8949497026440836,0.8896311435002151,0.89689032221638,0.891022318746937,0.9001922246621594,0.9186283128505897,0.9021501567805223,0.8964147657061707,0.8858741723476651,0.8700519981377528,0.8754928997938982,0.8961117296537358,0.9315967604565374,0.9709040412597234,0.969601452730877,0.9182166726925465,0.8514304540852151,0.7931506860017252,0.7273770991474733,0.6587158938177733,0.5900468510546526,0.5213998217721563,0.4572330918545682,0.397744540139491,0.331428628475271,0.2735639338722229,0.2061625459239187,0.1389444600569114,0.08139088438913045,0.02629932568837856,0.02156212124952761,0.0689871584807169,0.1329289367694073,0.19078119149056483,0.2570413905583926,0.3108222916203054,0.36300461992676425,0.4216807120636046,0.4899390252238709,0.5585672924937075,0.622030625806975,0.6821345446627693,0.7505454538327883,0.8165395655058207,0.856697826357393,0.8909774319596744,PM
0.9024529874779397,0.9024529874779397,0.902420907612496,0.8924730364770763,0.8810076423735387,0.8808671320052488,0.8814916170976339,0.8976700321376279,0.9044495637424013,0.929872243517063,0.959476800383817,0.9730014987325961,1.0,0.994335463282511,0.9719793919071278,0.9412023966131255,0.9099892062522739,0.8783875896684377,0.8378144590878596,0.8065960237317595,0.799742994446361,0.8165322701467259,0.8317102631585942,0.8178980133737954,0.8164124639339341,0.8393556684450094,0.8735800296950611,0.8701811257189007,0.8595403270853827,0.8717798912564794,0.8964354317707959,0.8826063641528545,0.8808642183598665,0.8760137949195803,0.8555169553970683,0.8277836242515235,0.828500114250879,0.8214807269632858,0.8161177360369294,0.8167126613159574,0.8327551110087881,0.8244827422755137,0.8040231182580522,0.800926246247585,0.8213325339703039,0.8343838153635814,0.8175315976755702,0.8161094492105021,0.8161092856205192,0.8161092856205192,0.8161092856205192,0.8161092856205192,0.8161092856205192,0.8160861803172077,0.8074696219874031,0.7777333895955718,0.7531745427766836,0.7534721206762214,0.7790174575921807,0.8009409551625675,0.8157899182875616,0.8161157845665543,0.8205473424879206,0.8293158982640496,0.8001389101113019,0.7547006380676304,0.7055683471762104,0.6521226995347513,0.5900501912778058,0.5311303279645312,0.4860942820668268,0.4252348472312595,0.36472845761260686,0.32062283129793734,0.2604189494632805,0.1983239495186866,0.14718362128042406,0.09552061857649008,0.04289136759620327,0.023034330781812162,0.05222174252539791,0.11004714390405201,0.16434785313951839,0.212923638393272,0.2747122046980963,0.323911876500278,0.3775943531489401,0.43548816799338175,0.4808884945003773,0.5423912856636859,0.6045246799224953,0.6648337753492415,0.7088999623592498,0.7546061892475682,0.7900909438463137,0.8268756186361297,0.8383919995002755,0.8547528748796691,0.859280313215339,0.8592811365492294,0.8592811365492294,0.8592811365492294,0.8592811365492294,0.8592811365492294,0.8590071880491981,0.8452523098890365,0.854355764194275,0.8612007697583319,0.8792326055501687,0.8870484871776148,0.9075245454820484,0.9283975463130458,0.9558136272893449,0.9704318371871619,0.9868707883248296,0.963686800966919,0.9147311539403042,0.8807367253175475,0.8466900699680711,0.8079057117503563,0.7790402554068874,0.7736067549456154,0.7898619806144143,0.8024819152023155,0.8161743597785729,0.8303848334442647,0.8434509164697905,0.8588498903528152,0.8592811365492294,0.8592811365492294,0.859281165125708,0.8595526902268493,0.8740620325584634,0.8626924704937293,0.8592855631352805,0.8592811365492294,0.8592811365492294,0.8592675337234699,0.8527499343777896,0.8382533894986746,0.8534388829254937,0.8549818677717345,0.8385328360693927,0.8430686878887355,0.8560961058209808,0.8391810613057573,0.8375030525981519,0.8241105556868322,0.8320649329778163,0.8258104208626604,0.8300965078451275,0.8277788459953488,0.8277486929294273,0.8229450268793101,0.8341223891190666,0.8545301940078449,0.8584820275452518,0.839920578019949,0.8191269908885088,0.788610901246714,0.7638188313963039,0.7524238944786226,0.7724220261600245,0.8029192161059826,0.8241223812359375,0.8375572689359001,0.837695211084875,0.8371575951337231,0.8175318891598189,0.7711244529199113,0.7266430978504128,0.6660657616434729,0.6039323359091227,0.541798730847018,0.47966512578491205,0.4175315207228074,0.3558624231408465,0.309335320949518,0.25270801259573883,0.19076632438371366,0.14233394694433077,0.08787512776263728,0.030163801319573746,0.0,0.01009806445030037,0.05337910129906165,0.10437441087139465,0.1557434216039999,0.2178085431110004,0.27215520025248585,0.3206900118449898,0.3826465833268946,0.4391565742576744,0.4857861106021244,0.5474702519879311,0.6089370181502511,0.6548318985079451,0.7102570469421221,0.7540052938398571,0.8006581174193257,0.8482027803265346,0.8643258261475526,0.8803451032251783,0.8808670620135848,0.8808670620135848,0.8808670620135848,0.8808670620135848,0.8808670620135848,0.8810324860266512,0.8929044125445134,0.8864252668091619,0.8816413292027954,0.896468074754567,0.8831602247774861,0.8968743817209415,0.9172121838355727,0.9301582995693258,0.9506432335390631,0.9710168979346125,0.9736020050213017,0.982812076015426,0.9632449167686681,0.9278292930442222,0.8902203534235804,0.8481664544266394,0.8138203846477086,0.7866520000467938,0.765066148042667,0.7549218763668826,0.7726246464729716,0.7891747284337245,0.7963056947574372,0.8157112379036504,0.8353534983577573,0.8498591197797283,0.8593512224759294,0.8691713645319203,0.8665193737625967,0.8595496242400982,0.8700651881300256,0.8599436190426228,0.8592813477666756,0.8604629765323915,0.8748821140873044,0.8608299136478044,0.8592735192925351,0.8538343932487034,0.8399891710910992,0.8575514656811714,0.8592808565825742,0.8592811365492294,0.8592811365492294,0.8592811365492294,0.8592811365492294,0.8592811365492294,PM
0.5872100934221938,0.5599533978464128,0.5338051472939647,0.5213058959855137,0.5074836978462036,0.5029597492629172,0.5195895154346828,0.5034783579963995,0.4986309948208034,0.498632235544505,0.503866037693645,0.5404586037228127,0.5911840901913368,0.6456485587017684,0.7126061170201581,0.7799793586153734,0.8366719718110605,0.904299527309413,0.891913270507386,0.834709003869806,0.7725468455685465,0.7115457522174586,0.6526545744893064,0.603846998429328,0.5550931163539241,0.505224753643351,0.44019280596264476,0.4171931992874458,0.4168437811629553,0.4097882744426249,0.37016681808927077,0.29823209467232115,0.22516866826407744,0.1521052418558333,0.07908365094179715,0.01743681739240266,0.0015844256562274062,0.0,0.003563959253775728,0.02824830262115441,0.09637676113727389,0.16943780651472373,0.242501232922967,0.3155628402828401,0.3852525425966671,0.4077588965968828,0.398705433105333,0.37030832550747395,0.3515061014130447,0.3770211465397022,0.36305326246889225,0.36850920243747387,0.3730369561162443,0.3711756650829421,0.3704275749093844,0.37615116521627145,0.40672263766956407,0.43905997851083,0.4839398780265878,0.511126753047797,0.5530210528331239,0.5743705534762191,0.6058591325464242,0.6269124037108686,0.6131376787485538,0.5943461167377353,0.5837459984072191,0.566824280151343,0.5509224300260827,0.5337368513003105,0.5214649779526099,0.524171058317326,0.5426671306723763,0.5345137238301398,0.5215152948392974,0.5212888690901889,0.5212888690901889,0.5206743955269135,0.5042507732754671,0.49863781880116065,0.4971174609877709,0.48258778274707304,0.4976965346533251,0.49862487877143735,0.5017751595645148,0.5368987348881751,0.5352216089347261,0.5206336388514954,0.5027008131563484,0.4848758576589658,0.4866358101817885,0.5001383399111781,0.513593901440204,0.501928845548032,0.5054362619644963,0.5030099073541145,0.5036914164402275,0.5123188501922167,0.5045284483643662,0.5255970115174238,0.5693463669295227,0.6251160560277467,0.6827802973317767,0.7518135095760763,0.8069807511966771,0.8790048740534822,0.9477000305260521,0.9387631171443349,0.8823183307046065,0.8134146608706394,0.7581484506935157,0.6994162812919722,0.6434460007162377,0.6010421958778047,0.5392909971448137,0.4903968691264047,0.46779448148201075,0.42516556977135656,0.41401311257125295,0.4184742743218446,0.40804772166991654,0.4079714507220169,0.41316680994248145,0.4299536543484339,0.4410196720316901,0.4750176090687579,0.49951245939510613,0.541017922889484,0.573321664577545,0.6104588706124181,0.6331745983093455,0.6562819826382342,0.6518730491077713,0.6113096253363608,0.5879655970508049,0.5604877117988418,0.540249906246951,0.5111209491600226,0.5134101152112533,0.5020857411465323,0.5135947148358166,0.5020936532674916,0.5216619516088792,0.5425403659047001,0.5439545305671984,0.5439545305671984,0.5427755691691774,0.5243885302028017,0.5212908951847148,0.5205500038056496,0.5057542473977987,0.5136499597250177,0.5083899805549517,0.505544851926806,0.5050885983015618,0.5354305201357836,0.5378974640506762,0.5297152724678424,0.5229995318483383,0.510151831777935,0.49873938128302475,0.49830665818490916,0.48313410391120026,0.4890301565048589,0.49736309259948275,0.47891676810713335,0.4770255879638894,0.4960970431244962,0.5186277684613461,0.5483041476045725,0.6092765410131933,0.6695408241454177,0.7424776546656573,0.8131354236648551,0.8674484969294816,0.9389861823242809,1.0,0.9636252495578157,0.9037528065906182,0.840292655144447,0.7672814500326006,0.6985010148838153,0.6549889538999549,0.594963089925332,0.5407219044942915,0.4805630950285953,0.4533709122091123,0.41957574289681254,0.3879478877783895,0.3852965122303438,0.38563738079751486,0.4003061793121363,0.40795486599430886,0.41257439848441235,0.4422831097083084,0.46073254944545994,0.49163038281111593,0.5125535568801003,0.5547807062612873,0.5883734140363166,0.6318281820477973,0.643822162348755,0.6543946146899464,0.6355425135828265,0.6117606214647187,0.5885641301527236,0.566910079772418,0.54527899018183,0.5269204138135151,0.5364819589850462,0.5373626117585535,0.5229034731081885,0.5362591192468806,0.5247586788170233,0.5420175360914339,0.5291634610188543,0.5213233318573924,0.5213239522192428,0.5290779230017044,0.5296233773517507,0.5207622068652142,0.5062551755297453,0.525867371057851,0.5437159681347756,0.5435282196155056,0.5276787097659299,0.5103516571908728,0.4974309034083437,0.47870018442573503,0.4772174572386514,0.4909265392269133,0.47710437603890954,0.4744807345481976,0.4559063224554434,0.46689768224543915,0.49573428808366327,0.5158765285391729,0.5499192968465247,0.6019876297247961,0.6739474197088575,0.7446610268299003,0.7989416943941201,0.8439306849598105,0.7887928585865471,0.7326902492814837,0.6702200122299105,0.6206861168572093,0.5720683294994333,0.5140562985635078,0.45994946381072443,0.4180541903962651,0.4171504911184134,0.3823495693366987,0.36287005620385226,0.36262923875111985,PM
0.40815317783942007,0.465055161468352,0.5175769775452483,0.5761998458670483,0.6356968579884299,0.7091054768882312,0.7720328296331918,0.854932899590481,0.9370392520673345,0.9889569607121773,0.9971674070018892,0.9506033218739827,0.8949933896611233,0.8296299155153726,0.7662469822423672,0.6904650626253552,0.6171450672824159,0.5513184985075501,0.4685093688531845,0.4051614986976544,0.34916162140560125,0.2763545351027217,0.21939214867697654,0.19355993053601583,0.19061328256757903,0.1646549052550892,0.1297941967646521,0.11016050948022116,0.12594638760647214,0.13759599723656546,0.13500854383251149,0.11186032396196932,0.10983810627505441,0.10946593510867864,0.09048569273304174,0.09785149465719734,0.11594585859376227,0.13695906226340337,0.1530129868828638,0.1473087763383676,0.16744932423774284,0.18991726302993595,0.15846084593972432,0.13806366317825258,0.15313602275052407,0.1650512265432118,0.14662851791661424,0.1530137501254334,0.1559204890142647,0.11882405961595488,0.09106573850308752,0.08788598466863995,0.10897117207068163,0.12494159937366156,0.13861961972355452,0.16664918284220231,0.1924208243559784,0.20827809344906267,0.21866674740858905,0.19565109752035603,0.1749194878116178,0.15443349101428172,0.11058721178209119,0.07573389422022103,0.03642445737295841,0.040989748702208395,0.05372081658124994,0.03705645065879626,0.04887339679131575,0.0362054159928169,0.0407703528016965,0.04527672593505638,0.008947791567677221,0.012818665003147878,0.017841831884105375,0.0,0.035272013442607886,0.059295726287335704,0.08700162608799378,0.13729029100178458,0.19201394187235543,0.24009211078752823,0.3179349304747747,0.39617144054043507,0.4580699348599291,0.5254612807363728,0.5517408500470387,0.5223244789412131,0.47271046342644496,0.40961264695657995,0.3446495844252331,0.28305144512144675,0.24148545980224334,0.20231658450606638,0.14186499392535623,0.061319416392239035,0.019310944707780386,0.017242560757593672,0.052315081369016525,0.03734430350918494,0.024479594808553884,0.016102544034646726,0.05268164340135151,0.08025781099622709,0.057980010033809926,0.040818572820588095,0.07540810277216003,0.06523002224003616,0.03775122886179627,0.026384846737923517,0.026339930055542915,0.027128514029832296,0.05234598095690757,0.0804212440090053,0.07490126446310619,0.0674381108496398,0.08155341907174041,0.06595662997714591,0.06746634461458889,0.10309087928828298,0.10958744503444073,0.09463344891504288,0.10324981431808755,0.10293217986999625,0.0827542110968027,0.09421579557819992,0.11032865975516337,0.1306722272773655,0.12270089278615082,0.13500975847024677,0.16381424888391916,0.1774735185344829,0.19715381335889237,0.21941350645097657,0.22095277619686637,0.205773858568433,0.1866620190503152,0.14427670414900629,0.0953965572954063,0.08185401059074238,0.0652599981200872,0.03151621691990769,0.04695408142220625,0.054790450529152324,0.07472535866978358,0.08198890420743243,0.08200513503652385,0.08200635474157725,0.08574398922520032,0.11916980620496886,0.1380099934869401,0.16164354971305794,0.19561470170925332,0.25479485418703174,0.33433892783426433,0.391892378940212,0.4509571425727641,0.5214778527127413,0.5882310830255637,0.6678970608586914,0.7283729879243888,0.7862431444698696,0.7994624211402321,0.7574029622040266,0.693260020345952,0.6374310777833969,0.5690051650328316,0.5071547089831041,0.4301053901011116,0.36832579195873283,0.30385860704027134,0.2397202348213101,0.1851747816142435,0.18510677380197293,0.17827724246751497,0.1465482803899576,0.18339505060108596,0.21168664550015137,0.19911531007486527,0.22291802437506814,0.2586644397180029,0.271363526773027,0.2499741991085882,0.24886183761848812,0.23545164852343703,0.2079002405391659,0.20317013714308718,0.2236745210697073,0.24669782835811827,0.24900021245828619,0.24900148180249904,0.2517369374376317,0.27436561693955674,0.2638092264930556,0.25851615144826745,0.27688787064561016,0.2984582809161074,0.3290802754823874,0.30576011905477873,0.28044877401496215,0.30477874106441405,0.32910893568602884,0.3129927552435463,0.33251700076589685,0.35786873142270714,0.3627764541925824,0.39496971909077416,0.4343177210800757,0.44412913544114296,0.46244126973756217,0.47163828509288486,0.47079875569348406,0.4455540729725582,0.40066931884139745,0.3614519457223153,0.34734758780235,0.3109000279827461,0.3045822987878113,0.29289581352811833,0.2952342446703975,0.30456026441976913,0.29274107525365256,0.2769216357954809,0.276848334655301,0.28506599861139925,0.30626592851158563,0.32981714715385113,0.33444474553185355,0.365941886884821,0.4157272341972371,0.47861677665693847,0.5503390328085151,0.6104551705254755,0.6893036159482868,0.7494200808192968,0.8300375483893863,0.9056856327984697,0.9674839860185251,1.0,0.9857965067772776,0.9310310458486901,0.8653964239942376,0.7986259771942574,0.7153332760211182,0.6319446160103928,0.5485986071369382,0.4761286618642657,0.42089199858718196,0.3749658403476861,0.3097759471270072,0.2673753102428247,0.24910439926593675,0.25610785720879026,0.27641186683938557,0.2768333524699571,PM
0.2720180069439655,0.3406783457039708,0.3889292177627315,0.4690499819694445,0.5509860753113838,0.6160430783449566,0.6976483259982098,0.772741755024053,0.7754120984415733,0.7224470188530763,0.696445719515836,0.6503987179455901,0.5602934672385906,0.4983783386617162,0.42401990057965566,0.387887465747375,0.3373336382586949,0.293803473290696,0.26190977965126727,0.24086723312490488,0.2171840123702955,0.18656806564514028,0.17149451063216148,0.13655740736535815,0.1456954932950527,0.1560682308904564,0.13083333438667655,0.13064653262829395,0.13659424221495176,0.1715220664690813,0.1893210069864537,0.25622880894328226,0.2582994468835871,0.2300891656149915,0.31198419148109924,0.4048337417657688,0.513299254503516,0.6343721004446339,0.694573911572637,0.6716195330638639,0.5915320548107683,0.5029328519720551,0.4047993071938194,0.34101586193728206,0.2725015229178682,0.21926332384336433,0.2480469758160213,0.30960734705972826,0.3827104739998033,0.38985111090271474,0.3558970489969022,0.34329847640790234,0.3070146600770176,0.30197259605131865,0.2675715339786082,0.2927686953953934,0.285418739511039,0.22880846271333866,0.2177592034599476,0.2153970674640604,0.18105137744243915,0.18745926397374024,0.21869412142854916,0.25500581220082363,0.26128545982095996,0.2619122434877488,0.2914276462291525,0.28830282128424845,0.261574567940559,0.2612813303844419,0.25194830715313987,0.21868178521293657,0.20053677898405464,0.17442431114602464,0.17517880494677662,0.20773061507541168,0.21629585099219995,0.18328006014095521,0.15921939742986968,0.1281993926774847,0.09256944729398331,0.08711982861256651,0.10000595396858802,0.15689401247536505,0.19862030022158006,0.2729229445891672,0.3414340582859623,0.40540536005644867,0.5036089860632815,0.5922932942866224,0.6787339643606849,0.7433647066005538,0.8285043477567209,0.9210612939415848,0.9658180658459772,1.0,0.992024241967048,0.9301239215289137,0.8328324409518757,0.7403848466149414,0.6822997553040269,0.6042270833265881,0.529443737116865,0.4693335557322893,0.3885701600307945,0.34593004184779996,0.29769284610388524,0.22564347559498366,0.19909970273813649,0.1756669845203298,0.21106208536722182,0.20666784187766662,0.152398117403715,0.12455447903416239,0.08852304417447066,0.08714863428209085,0.10789348528091836,0.1354927114077249,0.1890078326159088,0.2870361930924563,0.36868666377132264,0.45680819107518733,0.5714022723102463,0.6241298115829199,0.6480976983278577,0.6212276918301001,0.6813884456000343,0.7568055415216914,0.7834434676405282,0.7597425573976881,0.6478456235581849,0.5255732839084164,0.4035247989146802,0.30324503109316137,0.22666021317983098,0.16565863211784215,0.07462637936824024,0.005731973219015529,0.01740769729809788,0.07344340281617079,0.11471188536598653,0.16435784741322745,0.25862249292632633,0.35842548162388166,0.4659405869395652,0.5188501829767675,0.5084668969089776,0.500833843788949,0.49622813590340353,0.4359795218381546,0.3758278346708783,0.34823600751174055,0.31742728443985513,0.25493734702306714,0.18256114079535113,0.17419542182111414,0.17419446494006952,0.17127239444117404,0.1337500630006785,0.09252426368634126,0.05225174528722132,0.04355136845992291,0.04354842192785924,0.04354842192785924,0.043378028222413434,0.027204745088887705,0.03590805899735017,0.0030204285064554526,0.0,0.0006685990292591981,0.044668481207161825,0.0976825352499997,0.1635637684879736,0.23859295951457682,0.2943451765424232,0.3196100555789254,0.3304793599441451,0.28689696234115747,0.21941961880623584,0.18568413466352318,0.21916272184891294,0.2701244629737234,0.30425289238626174,0.32787490549869514,0.36862536956424385,0.42355436704519267,0.45149695435065684,0.5449769349354483,0.589696994364223,0.609492258672085,0.601054815274825,0.5661658801111562,0.528188655114282,0.4485497159940026,0.39406152036953745,0.345607895986082,0.3098139612197661,0.3728687105559505,0.3930789410411215,0.4275765229859463,0.43547815440403514,0.43411821019113095,0.4005386238529782,0.3568052368949024,0.2964348744764118,0.25985402565181115,0.22505214766856518,0.22025583366578871,0.253073758382385,0.22922758055431647,0.26015312383977385,0.29772424710033984,0.34798417645139956,0.39766001729504286,0.43400314878678614,0.4100693155268713,0.44685571504522237,0.5527151535004604,0.6454430187828644,0.7417502963403244,0.7819285754245202,0.7581326080304169,0.676429851349929,0.5720508720783233,0.47650897416625604,0.3937653689570526,0.3203800901445577,0.26236477787017165,0.26129215940357486,0.2612919658344257,0.258463777150169,0.22335170332964882,0.21774427221576254,0.22029137019415224,0.25633802588522947,0.22927300978781862,0.17949163950240177,0.17419552472061905,0.17708268482978973,0.21365472111619255,0.2177403567960381,0.2243036704003556,0.2570478998180832,0.21961827842288972,0.17153921775950032,0.13033801042666848,0.09168567466347177,0.08775466753012928,0.11767117228369628,0.13002338118466472,0.09616080855061071,0.0358416780287909,0.01923077580818866,0.04715884965583328,0.08354468727102038,PM
0.4859674563560743,0.4268279818825462,0.38246202232303617,0.3185036362281446,0.25481334048326865,0.22373487921089996,0.22334630180090453,0.22334195151559477,0.21855166608235255,0.18876253714997926,0.22156949277469717,0.21442069396906582,0.19153149864354369,0.2239887205870108,0.2620725671206694,0.2763435133604881,0.3618345322187464,0.45153871809402,0.5680681376786882,0.661141849181603,0.7707882400912709,0.8248368509466388,0.809469844374938,0.7249605237455299,0.6130258195300966,0.4840967491012176,0.3715829759799023,0.2750828565547927,0.18634869293259104,0.10095180100379775,0.0203378750617631,0.0,0.05749505006443467,0.08401597653450033,0.11805278207792913,0.17314002322351918,0.22331164190427888,0.2871297119594107,0.319753613979608,0.36063930357499974,0.4025184221593312,0.38189461109330036,0.3630174444111436,0.35767425537994413,0.318939710857725,0.3173585524163487,0.3515225326775617,0.3564960923636393,0.32840152907118636,0.36167422862362475,0.3629852168221044,0.3628612616507869,0.3448813482007278,0.3167180685139419,0.316193297149546,0.29230637524059144,0.2690162480857827,0.23541475837012626,0.22336364809643072,0.2240210169688872,0.2560292191276963,0.2713692476844516,0.31079081622480853,0.3597988111954704,0.4240996935744681,0.4993216793321791,0.5849189923872018,0.6642806226762081,0.7427672636108706,0.8136350582744889,0.8284205156802571,0.8254372654007671,0.7750099218066229,0.6964024710906962,0.6476571968305915,0.5806314722069672,0.49626421648363817,0.4311901293935412,0.3663849126579315,0.3026720921240118,0.2703493322237618,0.25992123546163093,0.22441662670463902,0.22334630180090453,0.22334630180090453,0.22334630180090453,0.22334630180090453,0.22353177220659415,0.25165987232450693,0.3076899230923713,0.3070972413999682,0.2886079016071337,0.3984265802357898,0.5193216828362699,0.6120963714026688,0.7350472664081629,0.8117351700483457,0.8280248015638119,0.7856907129947608,0.6710839788814242,0.5786433501937731,0.4544212404740886,0.3771784551702684,0.31088485687443157,0.22593766951354688,0.18883238879060738,0.22215983655515803,0.22334623048234992,0.22334650521382837,0.22559457551960183,0.2642710931087713,0.29259884206324127,0.31619327661698104,0.3101036409463518,0.2712912111014152,0.23876801581891804,0.194690219945584,0.13836472372971986,0.14184502260570397,0.20194624703879693,0.24499404075325515,0.2696349532883202,0.2698926324413078,0.2698926324413078,0.27085364412858404,0.3053920267854293,0.31522734002395936,0.2804725500514573,0.2699056931647954,0.2698926324413078,0.2698926324413078,0.2698926894961522,0.271093092126538,0.30778323010712505,0.3353702367925617,0.4088700048517193,0.485468472992566,0.5506117668762087,0.6362826258395291,0.7228052872116404,0.7896235172449266,0.8545963951273361,0.9120633868511447,0.9197081233655187,0.863960301958441,0.790845230132506,0.7241332912795002,0.6474834693207185,0.5972940342316093,0.5332578619454615,0.46799153829564144,0.3876797998220818,0.340082112403687,0.31578755772345524,0.28313952097567796,0.25773986272673266,0.22418687952799843,0.2170314484792497,0.1623160393565657,0.11732769216201078,0.09036126037130643,0.12728213925248522,0.14168502799736338,0.2028570721319154,0.2603625055208365,0.2750773085541356,0.34702414636303036,0.44289892755005145,0.5478760053243876,0.6533401326952202,0.7469730283692364,0.8108726074528558,0.8141108626273841,0.741920909265815,0.6185379129421609,0.4944868991994147,0.4080167160786141,0.3488117971726554,0.26849334756675614,0.22450043638097839,0.22334633652994107,0.22334630180090453,0.22334630180090453,0.2237505028266158,0.2550732859371463,0.31104083642811364,0.3535626672250656,0.3544384723879759,0.3176550389407202,0.31643902757848963,0.31643896308171016,0.31643924339464213,0.3198053361970965,0.3589033609546721,0.3640468454828536,0.3995090146505573,0.40952157276113965,0.40953034831625956,0.40612951232356487,0.36783044345892524,0.36298567574150553,0.3629852937221125,0.3629852937221125,0.3629852937221125,0.36301249683332415,0.3784921648495043,0.42041857451535325,0.48194857500268906,0.547040124098106,0.6317406920276305,0.6984088191454205,0.7717884766714693,0.8575158953119928,0.9384885973873445,1.0,0.9978306561319208,0.9653848677585621,0.916192804800195,0.8517907823863204,0.7869038115857485,0.7228129731781525,0.6483513695100891,0.570400580093934,0.5107567037579512,0.4674794583991213,0.42562535011995184,0.3993330810614637,0.36402959166954574,0.3629852937221125,0.3629852937221125,0.3629852937221125,0.3629855120189083,0.3654499737756538,0.4042186470952709,0.432684731043703,0.456505070475715,0.5061819234789091,0.6028551244063092,0.7146560065749163,0.8435692961092958,0.952273643454804,0.9979080699066998,0.9812205343434908,0.9246463924748998,0.8100663737174489,0.7173959753977464,0.5932037720550651,0.5058072772426279,0.42040620999475653,0.3350090245424697,0.2533601126592364,0.17836353592892795,0.16547694833273585,0.12930231545196413,0.08494640918238439,PM
0.5580273216178862,0.54401815541739,0.485474020960468,0.41645657696851934,0.3574145584127657,0.29270673146036486,0.22331285699525938,0.15930872927437978,0.09978587363420233,0.04303119357907215,0.03585630492941849,0.08946969272375749,0.14665781861804006,0.21414244848212016,0.28358854757666063,0.3529395313921815,0.4140738348274642,0.45542346999177274,0.5000972204682621,0.5584918294241907,0.6076401443804258,0.6548582183922709,0.6721663270635463,0.7097125240449991,0.7382664399126431,0.7041595823440221,0.6574365694951703,0.600223433957356,0.5502194770966753,0.5400575633803348,0.6011718477711208,0.6584750200540959,0.7245869301054411,0.7819335954472546,0.8487348886274733,0.892095433176681,0.8757280536031113,0.862870797244478,0.852192874072224,0.8634680292475916,0.875506030405083,0.9015669982252761,0.9291806114933232,0.9546725723874663,0.9775162193547589,0.9836308319960638,0.953656260086376,0.919182377427151,0.8940957634189934,0.8684034492465842,0.8514652181616249,0.8502307197061163,0.850914580970731,0.8620749825934348,0.8566267351700749,0.8584277575356825,0.85315397452904,0.8304354565825891,0.7996774818373193,0.7813531950040367,0.7808581805811317,0.8096583243029092,0.8110004161161015,0.8170697407966374,0.8216625753905746,0.7737507278324132,0.7162632352639542,0.656945061640819,0.5935275873868568,0.5333992114581805,0.46995013022970245,0.4017515423157678,0.3443604861976657,0.2771893957489502,0.20791741130557728,0.1472267961705429,0.0849625707829691,0.036048888002258694,0.04382411527763019,0.10632729501114535,0.1757613409798766,0.24520937234729723,0.31460528371260676,0.3780549307678984,0.4382298315121953,0.5074649142566638,0.5750018105944754,0.632299021054243,0.696255006915993,0.7546413781822752,0.8166321443416118,0.8734277055523609,0.8849080405112293,0.8666536307131141,0.8571440121074603,0.8609400244834009,0.8835037847032283,0.8984759282417372,0.9175091733148975,0.9379095140132172,0.9674437746893054,0.9892780449412304,0.9885031725514368,0.9551241379199515,0.9250464673552847,0.8915451764816877,0.8591906729620513,0.8412227334611062,0.8347585384476868,0.8348223039336662,0.8431236137790656,0.8516246419149089,0.8637461692490795,0.8569226868068784,0.8293865744427458,0.7927019313696562,0.7747640902345112,0.7582489571710935,0.7762756098958259,0.8005495111101211,0.8145396527889308,0.8251353238525332,0.7895160978232973,0.732906988547624,0.6746653564847165,0.612228920842762,0.5542250398904094,0.4882653808007693,0.41882945076584654,0.34938141939842593,0.27993338803100776,0.2106214121343828,0.14936682239050492,0.08706173127829397,0.023572636726437057,0.0,0.03277833517758144,0.09539328503051903,0.16479572088621297,0.23361830570846753,0.29181224037681774,0.3576131589818843,0.42705344288803104,0.49599467676359765,0.554385793656424,0.6163724167888454,0.674418929825459,0.7398465516427066,0.797821010767084,0.8612090517738382,0.8707106467905699,0.854494936996316,0.8540557092077106,0.8420085675539193,0.8354925456456774,0.8711578187440203,0.8919866632271716,0.9095893532242294,0.9476404908408353,0.9761644589522716,1.0,0.9997498235507924,0.9684092345726221,0.9270958123294473,0.8983535653369312,0.8751779832656492,0.8520733398783915,0.8366738103276656,0.847067602687408,0.8502242503429835,0.8514486124158793,0.8633919777789574,0.8513080632947627,0.8117102482995722,0.7986755173622964,0.7736992647763841,0.7695640758035864,0.8009329852791423,0.8114101959076541,0.8053145130536485,0.819413108459865,0.7853176132371025,0.7266961303750468,0.6688179973265469,0.6096123691220163,0.546028564756659,0.486066506638795,0.42243808549588024,0.35313526558444064,0.29130708362973134,0.22957246759774863,0.16026410786601786,0.09653622262209316,0.04671303192297849,0.036401855668205085,0.08503147634454944,0.15336377358767384,0.2118906661896156,0.277204436027374,0.3466400497391864,0.416088081106607,0.4855361124740276,0.5549841438414482,0.6242202096332035,0.6846387387973749,0.747798334300573,0.8115600754760872,0.8711629876168034,0.9155007517556522,0.8867168906075782,0.8665777116156801,0.8568368712583965,0.8528238399077228,0.8662351622846018,0.8843840362360069,0.9003471202156823,0.9279129155397952,0.9539906329793424,0.9658835539948152,0.9533106746157443,0.9182796737229002,0.8922115084412563,0.8661384385326016,0.8503077266124937,0.8379869094643873,0.8395089055125244,0.8383916998885277,0.8464219478363169,0.8502215626014267,0.849585094408269,0.8321166694223825,0.8060023755081813,0.7859068990244151,0.7604579389542998,0.7743524491648324,0.8093723848874328,0.8254361512171315,0.8085381002602228,0.8101685407395438,0.7714733470168107,0.713981795142947,0.6520847037707753,0.5943279635328138,0.526070512885259,0.46688497550826424,0.40236043016598577,0.33309416946740456,0.27222197453074837,0.20949706602910245,0.1401235354097521,0.07137410402186695,0.030994194842671297,0.05602700060684174,0.11875681924635928,0.17109036757659202,PM
0.15657526464373506,0.15110465413265128,0.1858700040622252,0.25528024770777025,0.3410294931603368,0.3933835539448718,0.44373048507806656,0.49074390038140914,0.5759369799215421,0.6650904701677871,0.7444087741300014,0.8181034103023399,0.8634205900640963,0.8114959015172505,0.7403550714434268,0.6663037512031242,0.6063673050518461,0.5594591986748987,0.5148428140550374,0.470138215623209,0.412253120267116,0.34479435616448617,0.28172907236570266,0.20453741297124406,0.16866284510852925,0.11307876036950448,0.05083652899182978,0.010424383720799124,0.0004881499706330672,0.028984363423852688,0.11152030658464973,0.17691494565629817,0.24104748141175625,0.3039589791306727,0.334272664919129,0.3619737189927932,0.4235881593069739,0.4487292829618763,0.4646011510085222,0.4463049093113356,0.3791481703542625,0.2900922540371518,0.20085879582587118,0.1116379946421775,0.030432215497746995,0.0027457539840378686,0.0,0.002315925188555834,0.016891410414429764,0.08383734639120544,0.17291205341904226,0.26214551163032196,0.35136441481639835,0.43107665667597983,0.44954800728117084,0.4325385388883505,0.4486066357632321,0.46001059251674237,0.4600779302726439,0.462478897041966,0.4999702816703646,0.5245579771587936,0.5278371529008368,0.5602107049428402,0.5990402974538473,0.6369628450379641,0.6806687623279246,0.7061672021007692,0.7150114945420643,0.6731026062974963,0.6428625255671405,0.611480375568529,0.5693084850981704,0.5371242793267457,0.5209490380556119,0.5013249902002737,0.5001766588389329,0.5109884320971516,0.5404683839248117,0.568970222278621,0.5889909564014837,0.5840081048997985,0.5862388896381963,0.5937465484836459,0.5789800237717366,0.5751066564532485,0.5750999972141684,0.5747317074858151,0.5587271909505316,0.5668668802723462,0.5750701625868451,0.5751012428871527,0.5779238991571316,0.5947469500620151,0.5770506435141391,0.5835351788088841,0.5674103116650575,0.528540476865826,0.5406648624216484,0.6120116861969485,0.6827325262116815,0.7518714753622899,0.8314860673570243,0.9022453698659452,0.9875512946298541,0.9999999999999996,0.9347409315571302,0.8675706297027239,0.7895066147170184,0.7212781227687457,0.6612573054315001,0.6131595252058317,0.5740522808067241,0.5525100345445622,0.5500872165610851,0.5443752718968042,0.5378883090873856,0.5508373133347,0.5700581638277584,0.5932594988546236,0.6228356049198331,0.6527076907179006,0.6977984806773914,0.748849367825478,0.7840175900295239,0.8179921662463241,0.7970226284632447,0.7563711553486985,0.7209109692538909,0.6867366395983967,0.6527912526957702,0.6304876857488302,0.614927263016829,0.5857307891403747,0.5574106983612794,0.5501338911940561,0.5579192376126456,0.5763031096337721,0.5998715697676782,0.6358526982287889,0.6430900026806543,0.6243736345597859,0.6014981734321236,0.5847459963291723,0.5830523872072786,0.5558067144488237,0.5501682531508116,0.559484459023786,0.5753633048943052,0.5937466229062571,0.6205341699496025,0.6211894046153055,0.5859405033278375,0.5982501900259076,0.5979706664573645,0.5776368237545122,0.5579389649774531,0.5272402530195728,0.5064109576686682,0.4778691588658961,0.5018353168616199,0.5669077716511244,0.6404646694386549,0.7293797510742128,0.8112869190219283,0.8832506440909538,0.9629840938367695,0.9841601564997862,0.9163083409382708,0.8492456683698362,0.7825605221432999,0.7262595592244829,0.6769019882252976,0.638089502074711,0.5948086815794542,0.5850351283984554,0.5757850693444735,0.5760906553391387,0.604800568545032,0.6520604013934075,0.6889156998172914,0.7118212737586638,0.7371246415544488,0.7735312191418999,0.7959427600138533,0.8399075546818424,0.8845224318232083,0.9291405919921512,0.9732964440396983,0.9842471087794746,0.9491094806442519,0.9102331431274995,0.8670174453065527,0.8425643006311074,0.812154356264601,0.7780159753106761,0.7557955328268018,0.7490829617955872,0.7299568003650516,0.7319613912093934,0.7599302534930268,0.7831621897125722,0.8172537247347251,0.8039990613174015,0.7685929630037891,0.7345451186045175,0.6984450142494869,0.6757147584942866,0.6513255592613345,0.6097031476170156,0.5732566352305883,0.5187203451240521,0.4737740030294959,0.43906244827625596,0.3971444757350744,0.3762777178243706,0.39783056067188394,0.42394719658908464,0.42125565837475953,0.3860951993594277,0.34255044169412585,0.310338443973738,0.28183760244758815,0.2568435512984024,0.23607653813418628,0.28228587719661347,0.34736779186933386,0.4158435074775828,0.4995459301182632,0.569035719482931,0.652378633112821,0.7180970731623906,0.7202740816963105,0.6489591955080569,0.5814236992699953,0.51412367645068,0.45488874003533075,0.40827594440526394,0.3756366780485654,0.3501538794350392,0.3205873036405933,0.29674452959075825,0.2765478113862696,0.28917110869006324,0.31786905030438195,0.34253338835957203,0.3846336224172284,0.4187354598554096,0.45611274275569036,0.505838306119387,0.5406676488654578,0.5871567109257572,0.6408871884317606,0.684081547962553,0.6880002138094006,PM
0.8858148405110686,0.8481053252207333,0.7931081260950892,0.7174719597020767,0.6395635369983941,0.5763853916189445,0.5071751983584747,0.44702879666170237,0.37309239375409486,0.29886949561713916,0.23931411237812128,0.17712783052174563,0.12278357148503005,0.1295157468935768,0.11732224580082029,0.12187735309015446,0.1372169517726758,0.12833492984902106,0.13960729816576878,0.158972722191967,0.14645401274362513,0.13709365989864786,0.11908977794159359,0.11446730572789576,0.11659389188707703,0.13945632974684719,0.1600996392935019,0.16136846065216615,0.1492115889292962,0.13807261097481804,0.1449441666626634,0.16099462031057366,0.15392987312470963,0.13822281709296247,0.1415230809893302,0.16002282741015916,0.16859475489276,0.2101287386530184,0.2369950263739833,0.27609957743711,0.3275648597379264,0.3661693841216236,0.4168835593449307,0.46273984268283996,0.505803939815034,0.5575143552873474,0.5841204934041082,0.5774462771327347,0.5516082478612061,0.5128522502151744,0.46199990641110134,0.41000233369971006,0.36158293599775426,0.322674782435163,0.29317218709998016,0.2559874984519954,0.23060961150259862,0.2074624467515931,0.18634681490060245,0.17808448252768594,0.16185007331654067,0.16156561437145323,0.1737156397016424,0.2125047576290653,0.2639076472465187,0.3172880350086307,0.3897014114397317,0.46735253039068336,0.5286523927212725,0.6010327361440408,0.6792955952011406,0.753123095302497,0.8133375246144512,0.8877456583339347,0.9305107564165986,0.9178244158142359,0.8572291696240875,0.7812109190503165,0.7219167109714935,0.6461075601654214,0.5698500297833,0.5105991895091844,0.44545054485792157,0.38186494242544544,0.32272299023631534,0.2575430368615166,0.19405871112008422,0.14651359160947486,0.13797236472020336,0.13190752225140345,0.1277561858175167,0.1379029797535103,0.1389514368702729,0.15643607271756643,0.14395953069944545,0.13794362905669022,0.12991837295770692,0.11469005311844427,0.11458645907211062,0.12694436041541746,0.13831904096645342,0.15479488442936473,0.16694195451370142,0.18437032366353678,0.18499742627026183,0.1864082395225819,0.20545178550571608,0.21229068678119223,0.23603350387032807,0.254893584920898,0.25925301180916493,0.27903601913537157,0.30154236655751854,0.33430944424876596,0.3800812042183699,0.41086940897298074,0.407876584524991,0.3941225414215044,0.3643356555824466,0.31188266571349343,0.25663782197220897,0.2132541244049868,0.17395555371956428,0.14414059627846187,0.09857786692339321,0.0670767473149736,0.04469043513968174,0.04057188930156608,0.010630999149486176,0.014693105569893561,0.0036182597176215303,0.005928669736110059,0.01793370083148549,0.013068582777693738,0.04612784064083009,0.09795849963427639,0.15499277404683953,0.21323332994390265,0.2889930904917697,0.36089555688417185,0.4225660037469572,0.5003332905744458,0.578614002611074,0.6568946033244298,0.733999068148913,0.7933878724356109,0.839899514582302,0.8268473867836592,0.7696436989072701,0.6930709650709508,0.6331453599976085,0.5586958690330519,0.481710113540637,0.42217959619882794,0.3634664375864549,0.29721315307067586,0.23730222860600803,0.17555676386984764,0.10497437447775937,0.04038560271360758,0.0,0.01285119102406318,0.037901410923744105,0.056417016158003985,0.05226780239341222,0.06980218058464827,0.08986915224197034,0.09076194098487322,0.07778686259880851,0.06771276301675355,0.08260906970513737,0.09091542150208731,0.09692825804490868,0.13155267751094213,0.16968625388562097,0.19071993500146123,0.22293909151727176,0.23197544154748861,0.23222992095304607,0.24698113805640487,0.25949028859066603,0.2778276523626584,0.28659538503824145,0.3130778032991963,0.34475013871917604,0.3574124776261556,0.3943068259781155,0.4445353838660253,0.49660221584409214,0.5448837452536974,0.5623668450294836,0.5807425612707613,0.5640605992967993,0.5375854121331161,0.49478321177297335,0.45420843387271503,0.41296358091886365,0.3644050474795506,0.32502936664666704,0.28594316495726213,0.2528957791394242,0.20865573903105572,0.170977669270445,0.1519234935093161,0.14748130589159292,0.15373575448512256,0.13822434517281224,0.13798040421454916,0.14306907838366234,0.16938155477545402,0.21837761384715781,0.271898938150839,0.34488334772049223,0.4231588960463073,0.5014272644323352,0.5731621247580749,0.6349816177982683,0.7127701565184621,0.7907999893804165,0.8533036131866556,0.9228909183881591,0.9756398296140913,1.0,0.9636127047402532,0.9082516350694219,0.8319903599600202,0.7559759700540649,0.696865919431974,0.6206598632525262,0.5446151770156407,0.48611981701638296,0.4277107961806319,0.36833663879101497,0.2997525115658055,0.22153389785515776,0.15047702263300078,0.11371979791877429,0.09299646418015106,0.1087010236042647,0.12781543487082336,0.1333519617460026,0.12620766127655525,0.1440972592985963,0.17636475630883552,0.17840091163035643,0.161940269253126,0.1614853536792782,0.16149578836300504,0.16899257174713211,0.20513402599613784,0.20209309210992998,0.18548824096940741,0.18500103972135484,0.18922808259509205,0.2073947027241898,PM
0.9505839221352717,0.9325265053552383,0.9195472762540322,0.8850064027018214,0.8723834952848777,0.8975873124023859,0.9381018899516227,0.9509059227400747,0.951039243275035,0.9627863593549102,0.9772986688340635,0.9774357418356039,0.9774256340975618,0.967071508180148,0.8988213583258626,0.8346096222414725,0.7631001695784767,0.7498604914606086,0.7404422802566821,0.6797764282825125,0.594784858397102,0.5093939481286953,0.4240030378602877,0.3389019624124865,0.2773295633161883,0.2638940412189381,0.26307767617539524,0.2592295638908775,0.20229586331871197,0.12443780376820612,0.10830094928521561,0.15524628449960343,0.22596599358975178,0.3107962492581513,0.37873057658837217,0.45555585427718315,0.5409138436085121,0.6192173269144683,0.6858538320496304,0.7672679517347052,0.8246966228860049,0.846879101136079,0.8680113401191751,0.8716036967034513,0.8716049660472982,0.8716049660472982,0.8720043536410151,0.8876342208237955,0.8785713846160861,0.8966904960486475,0.8984097835797082,0.9148112979254308,0.9344723732050446,0.9507960726675697,0.9509780478885275,0.9509780478885275,0.9509780478885275,0.9509780478885275,0.9509780478885275,0.9509780478885275,0.9509780478885275,0.9516160320422613,0.9713305965553984,0.9662844729434279,0.9499701714475006,0.9284580078437092,0.9051151775447841,0.8740910224976672,0.8720096230510683,0.892030810070533,0.9264543005459642,0.9496291698370611,0.9577020575099131,0.9632045162878025,0.9511371421517283,0.9628904620102632,0.977301074310104,0.9760912262399928,0.9339930316909313,0.8715230705841939,0.7893283711007446,0.7086397230273351,0.6437040121898137,0.5596116652905039,0.474277668995327,0.40000916222896876,0.3296426946292077,0.2445057416703178,0.1615981756174305,0.09861300853756294,0.05399653055316067,0.08155042770236465,0.15987990770791471,0.22387167326551305,0.3079004514807644,0.3928078972724016,0.4598962383720431,0.5324811981234245,0.5787839258099954,0.6476887812144345,0.7148495754639721,0.7956582773511287,0.8409879852691922,0.8673225893444934,0.8716044959199478,0.8750055187108727,0.8874317915803567,0.8719884472036816,0.8716069993480899,0.8747668421026709,0.8939988381093991,0.8799622037042849,0.8995230871113589,0.930840436675624,0.9507761011568676,0.9562853235272022,0.9763212604228886,0.963794859362324,0.9543633016673163,0.9758899518817228,0.9669051333393912,0.9660528807462163,0.9553737739117891,0.9621644701614236,0.9772842359778227,0.9774357418356039,0.9774357418356039,0.9774357418356039,0.9774357418356039,0.9764035999675191,0.942069122714281,0.9020422380513167,0.8810375329252174,0.8716733155188554,0.87960123483859,0.9272542481060637,0.9734773018244458,0.9538631050411177,0.9658068290144981,0.9773706137314133,0.9807278003470024,0.9935488623979656,0.9796308726072298,0.9999999999999996,0.9809212820144082,0.9175887311244622,0.8418855456754781,0.7565399362931493,0.6711490260247417,0.5857581157563354,0.5004265014308311,0.42625969184378487,0.3557959386332432,0.2706521686297818,0.18780865729108243,0.12401627577139873,0.05472256071084303,0.026707792260175722,0.05997316663367114,0.1420292787757953,0.20684998303543845,0.287775049814464,0.37309985611494856,0.44650245582308745,0.5176183500307356,0.6028758725528931,0.6852049021396414,0.7488183931391741,0.8266260732691042,0.8698503398041182,0.9123672927042956,0.9172191510071737,0.9036326717687309,0.9234590054931187,0.9189837350162722,0.8987366708011,0.8809803418534119,0.8716733155188554,0.8780536386208273,0.8787421900101404,0.9072439104305405,0.924361631655549,0.9248749999603683,0.9356368577382193,0.9258683683803546,0.9447496041320265,0.940034702230649,0.924790217688304,0.924520353941451,0.9244875182349905,0.9143820865260737,0.898384787749611,0.8966232324900054,0.8785009654729774,0.8966778351429965,0.9047350699174257,0.9225168366170302,0.8952357423968045,0.8717149166186879,0.8489943327565581,0.8078970938615657,0.795899878800205,0.8403969052135589,0.8759126309961514,0.9120178962637335,0.92445544522112,0.924520353941451,0.9257099765373913,0.9460606245338394,0.9510174529257536,0.9603151118309907,0.9498811874985518,0.8864681225337425,0.8091136726909354,0.7237625964910346,0.645724433268827,0.5789251047310575,0.4940381100731366,0.4088019129638969,0.3386690914896069,0.26426725750555313,0.17902192825266505,0.1061432829369191,0.03616146031110867,0.0,0.02646490740768348,0.09488891695641577,0.15896124470090767,0.24118588955826326,0.326575871325153,0.41013486916078623,0.4745582779695732,0.5562902735113737,0.6374945523385898,0.7018674870398427,0.785574071952627,0.8421631218503136,0.8644883308387983,0.8718044499478688,0.8861893483231058,0.8966766139446292,0.8755198047159101,0.8716074929818078,0.8718930085796752,0.8874038793022296,0.8985694318302024,0.9176599375897063,0.9245118916491362,0.924520353941451,0.9245225987995505,0.9278783656999718,0.9465751826434263,0.9160199574751178,0.9145420530999888,0.92448511275895,PM
