0,1,2,3,4,5,6,7,8,9,10,11,12,13,14,15,16,17,18,19,20,21,22,23,24,25,26,27,28,29,30,31,32,33,34,35,36,37,38,39,40,41,42,43,44,45,46,47,48,49,50,51,52,53,54,55,56,57,58,59,60,61,62,63,64,65,66,67,68,69,70,71,72,73,74,75,76,77,78,79,80,81,82,83,84,85,86,87,88,89,90,91,92,93,94,95,96,97,98,99,100,101,102,103,104,105,106,107,108,109,110,111,112,113,114,115,116,117,118,119,120,121,122,123,124,125,126,127,128,129,130,131,132,133,134,135,136,137,138,139,140,141,142,143,144,145,146,147,148,149,150,151,152,153,154,155,156,157,158,159,160,161,162,163,164,165,166,167,168,169,170,171,172,173,174,175,176,177,178,179,180,181,182,183,184,185,186,187,188,189,190,191,192,193,194,195,196,197,198,199,200,201,202,203,204,205,206,207,208,209,210,211,212,213,214,215,216,217,218,219,220,221,222,223,224,225,226,227,228,229,230,231,232,233,234,235,236,237,238,239,240,241,242,243,244,245,246,247,248,249,250,251,252,253,254,Target
0.8230942659174172,0.7947458157293927,0.7489258679812734,0.6830855827739075,0.6130479021666968,0.5663336109834822,0.605152004851524,0.6721737035182636,0.7389814642662791,0.801368050768644,0.846147854478625,0.8727902646729047,0.8977665789806033,0.879749517320866,0.8249757079727162,0.7509292321040633,0.6554536467081329,0.5551614304950161,0.45034582624393127,0.3916975182249285,0.47016746522356834,0.5696933049839199,0.6678419135099416,0.7533350048744105,0.8415779489066582,0.8965578473546403,0.8940535541645889,0.8888769047255156,0.8367445466252925,0.8240858360946084,0.8546178080806395,0.8682128790681962,0.8621034905959029,0.8691007961505894,0.8797374976935939,0.9207930535237541,0.9260907633238213,0.8922552343875418,0.8355387327714987,0.7743258414487175,0.7088113234989426,0.6771464702922794,0.7345450530052551,0.8029258844434866,0.8723774053718736,0.9298564560732006,0.9658837182469462,0.9900775933242882,0.9986274979338186,0.9921929449718241,0.9428362121686895,0.8661385406295015,0.7696709148501557,0.6703521337483775,0.564020690134202,0.4795779149123174,0.5130905068522651,0.6108827468987084,0.7144329505491629,0.8108788415434125,0.9050289015659967,0.9859054428374456,1.0,0.9629738103792977,0.8960806536179549,0.8260609770809504,0.7540685708939696,0.7426512187129028,0.7740432691236405,0.7923075584605108,0.7892553168676635,0.7830707177237333,0.7763956901701063,0.7847542450867349,0.7634514801769101,0.7248730173911047,0.7329736728965193,0.7531202551603164,0.8010938984184208,0.8666131267347663,0.9240925487163798,0.9229232470622959,0.8859441262351067,0.8917305733323859,0.8832572395745806,0.8265448387871852,0.7508563331467628,0.6581604216262136,0.5593052497830837,0.4541772909322499,0.37715881506515614,0.4239247805702473,0.5242251319166438,0.6221048066548578,0.7199327663900035,0.8233983218395093,0.8740595483782414,0.8483330126518336,0.7973081661155983,0.759781558312282,0.7650792410529887,0.7969240321271402,0.809372062565402,0.804567304145241,0.8063649047388464,0.8122224151126392,0.7951207548245436,0.7653637179122912,0.723654946696263,0.6681211567036192,0.657673098889759,0.7205128127170566,0.7919968215868787,0.8545342873054391,0.9080995163440768,0.9477978520319716,0.9703563202448291,0.9776588100057038,0.9472271017867722,0.8873255286423296,0.8897122816781109,0.9237003401808441,0.916820075008367,0.8867879751687799,0.8324785850875451,0.7706636269375808,0.7010037662302526,0.6327538161999389,0.5928845053762597,0.6227988638416222,0.6775804704620949,0.7237838445538602,0.750603606926175,0.7556417871852177,0.74977000209189,0.7575922753789701,0.7557342130536093,0.738829162649953,0.7057780501423134,0.6989914792450973,0.733714609542444,0.7799897947540511,0.7997922899919017,0.7353460900105686,0.6373501981423542,0.5393951788003419,0.435908172801299,0.3262823457077486,0.22329711791013795,0.12174972914884097,0.027677933168837265,0.0,0.08023360757998632,0.18227951481081828,0.29121224598182516,0.3916280822381468,0.4968118823315677,0.5964426930788478,0.6956178133511162,0.7822121420441586,0.8340829706776041,0.8383607336004264,0.8304341007629241,0.8415730840252418,0.8544910122907003,0.8042380426278015,0.7351204171667116,0.6862234616326028,0.6603459158895433,0.6757238590133143,0.7199073155498019,0.7388219652218839,0.7396770552957466,0.7408084197417537,0.7300825568593043,0.7341322670668347,0.7173846962569796,0.6841833114189009,0.6867205395260352,0.7558973433237774,0.8337105644851173,0.9045176172994527,0.9433864418873408,0.8915558833155193,0.7920873620687678,0.6912941335374643,0.5909961986334369,0.4897252504617504,0.38949086405466193,0.30405935640138204,0.21368811392001175,0.1455339503054236,0.194872930675849,0.29265771108944816,0.3987436017473751,0.4997929175243676,0.5918419258589158,0.6925646664737499,0.7926767450200543,0.8763202216813646,0.9312701848883456,0.9333991918685838,0.9215553025322856,0.8843112459792888,0.8216186688986573,0.7563760370651109,0.6821914173265458,0.6209876550202424,0.6191809090924636,0.6761802228759191,0.7431011800511111,0.8032560296756412,0.860908839540178,0.8797563318825343,0.8431432228571785,0.8212334978931901,0.8184400796532625,0.8091251204400902,0.8056971489153457,0.7792105834935628,0.7778662106595187,0.8135078273791634,0.8327634690437131,0.8078552725897765,0.724499025697317,0.6253822140787277,0.5266511014913653,0.4277725318877905,0.3260936143194506,0.22353926460720674,0.11993621113556285,0.023281856748025964,0.00625721312965255,0.09338713226754436,0.1984407866434803,0.298969290395267,0.4079606785161234,0.5100333968590576,0.6062937708089944,0.6909180915183701,0.7733829584720171,0.8273728807435812,0.8358384236112855,0.8089864782506244,0.7718776644890166,0.7070368740619926,0.6395011855043395,0.5710008744026265,0.5047393056742573,0.4976014987979416,0.5491879684208358,0.61757301029462,0.6851938005784262,0.7405502286282037,0.7737662273985517,PM
0.5156212119937789,0.5132616367467864,0.5003870644860404,0.5009007334055586,0.4929246468310424,0.5451953332319031,0.5952350864124263,0.6236118254673433,0.658115024491734,0.6611361337041926,0.654932520904079,0.6496066796687914,0.6535691323391197,0.6528751111628783,0.6354487631455781,0.6511495199134947,0.7606071519558717,0.8677302474919433,0.9562190013784582,0.9260491181230925,0.821380680853427,0.708469363838991,0.5974043525791677,0.5230529941481343,0.5415813686664372,0.5738911466083465,0.5891008547504435,0.5972317477410463,0.5816443211961015,0.56717049525097,0.5520696433727483,0.554761130838608,0.5688574732078124,0.5780028209911028,0.5765213072291644,0.5621763865698997,0.5870347960778202,0.6353222574433248,0.6797771456467334,0.7049727118164708,0.7231428109163409,0.7297935389973871,0.7217216679550646,0.703851808149305,0.6863669961125076,0.6308287205743119,0.6254478996314083,0.7213033077135154,0.8403229237490715,0.9441486692250689,1.0,0.9353444880287447,0.8249832758095668,0.7160789690904621,0.6044444030343583,0.5734413078455227,0.5779959289470114,0.5699929583082488,0.5576918500689461,0.5565752256747518,0.5278002105856059,0.5109959616729975,0.5299783833320983,0.536581239886257,0.54370061398315,0.533382896468038,0.5141887383106352,0.5013612538992134,0.5325243907148378,0.5791424240876015,0.6165062188860526,0.6405648175103611,0.6611663734319211,0.6771120636331789,0.6755117335575691,0.6713867008361891,0.649148074889113,0.6063986946443123,0.6536322498337825,0.7636786004035905,0.8732173394933782,0.965408581690578,0.9546894105629016,0.8597884541893053,0.744420078172261,0.6386032510998176,0.5650478902034433,0.5925201803432558,0.5964685781370465,0.5806276664478589,0.5777756571831452,0.5644427602770179,0.5256349855290061,0.5132133337274492,0.5317454627007292,0.5432941101067152,0.5386351154215117,0.5363223991055439,0.5234440965883982,0.48780288278838757,0.48431908259775813,0.5299900004448492,0.5694883962877872,0.6098532070578475,0.6313373511806688,0.635018446869112,0.6254525603774685,0.6304887275281743,0.621585414387964,0.6086294426525538,0.5928131996111627,0.6829127772063113,0.79607672338539,0.896014281287179,0.9081451618894198,0.8229180944135486,0.7394214525139016,0.6290858525660998,0.5306840139202338,0.5269093602690784,0.5254602384580633,0.5233153843167169,0.5142018714269012,0.49854555394254163,0.48316839798301103,0.42882919584238,0.3687225324114207,0.2613107417672591,0.13939518250287275,0.03329489087427051,0.0,0.026585043810520403,0.12247314236619378,0.24421871990939437,0.3543368268203757,0.4071702099013925,0.4438029679124691,0.4509021201813779,0.4589341328412839,0.4503738197606939,0.384181458490815,0.3577011126972547,0.4297365643433597,0.5238583277660549,0.5080231859126156,0.4112391636526267,0.4105833456696786,0.48983473454009996,0.5513707387316087,0.5692105731269925,0.5697825772526537,0.5653825492180737,0.5476350309103757,0.5161386479278143,0.4810687592379268,0.42832540528533425,0.41033583421003295,0.4323354061070246,0.4516166978877325,0.48145617550611464,0.47467657297718,0.4729027619479811,0.4570536224602595,0.4372903113926707,0.45020243676786054,0.49711321472079995,0.4978066651592794,0.5212179322737982,0.5326224497410759,0.5394255866725683,0.47908125390019274,0.4055877434480575,0.417913317164464,0.5110491932031298,0.6182303832987008,0.603377488355116,0.49814598494367246,0.41938845355157284,0.4394483814359469,0.5247666285255481,0.5910529018975317,0.61106592193314,0.6078347741279604,0.6007900146232461,0.5905247779165625,0.565802340570658,0.5293664006569951,0.48190136117996296,0.4409357476682727,0.43362261349664166,0.4609189222007779,0.46950011507594924,0.47545341628888593,0.4807101277615784,0.4564789714692119,0.42458764784992464,0.4233344319335468,0.48164113550656573,0.49018149257970345,0.5024853971724372,0.507269502639391,0.5028967329560325,0.4459582143967844,0.3957179192785367,0.44670413167611756,0.5592819540963521,0.66786697821047,0.6368026448179509,0.5354001565758528,0.4480335119787644,0.45203875406359506,0.5307202052601356,0.6079000222751381,0.6418472720553168,0.6593217815682975,0.6706461472748781,0.6528742677212391,0.6332191775324527,0.5961449752030057,0.5466354018438988,0.5054761308655271,0.4958788635517686,0.5084334640703125,0.5133201380920949,0.5073326484439007,0.5032328999809823,0.485577866781,0.45775946553435265,0.47945444164780593,0.5167987472707534,0.5252918426650779,0.5331723120973604,0.5098082371579062,0.48437471148336053,0.43442441963266853,0.3773523506336809,0.40903322265765096,0.5052335156930678,0.5206981314625492,0.4443749740426606,0.4586650770753562,0.5406424737544504,0.584585913437373,0.5845559030954006,0.590592175093339,0.5961313545294278,0.594888105321274,0.5512520983535483,0.5210331701811,0.4697237473485285,0.4136744773178207,0.4194258467687688,0.4434016446959683,0.4565496483046019,0.4654965668304567,PM
0.5341340479843173,0.5335654763499869,0.6317405920643382,0.7471816297105045,0.8387902459272873,0.8025945123931901,0.710209576114802,0.6162774214001216,0.6251094133129245,0.6202382775135722,0.6541233498113224,0.663678884991211,0.6499680463624942,0.6111579995621073,0.6027180516021851,0.6478996139744484,0.6863994220581842,0.7021350089942238,0.7093189650865095,0.7443856913867957,0.7633084275856503,0.7831878953190148,0.7571636751509327,0.7094495374299985,0.6527016204837683,0.580281354583418,0.5000466818165008,0.41225217528197877,0.3274868423790438,0.266551211284618,0.307346658469299,0.3763215274778138,0.4395866759780245,0.5085241372285805,0.5628399298843147,0.6015942541207719,0.628781941732548,0.6009647884271789,0.5499219767500771,0.5443366362230249,0.6525581650879269,0.7747214415538459,0.8881199183224542,0.9369624169299473,0.8559550193128276,0.7327505101645198,0.6135394516265062,0.5498343749165611,0.5386998548015893,0.5271241880090205,0.4823970150517076,0.4476880471011908,0.4248707010022428,0.4283552834601001,0.4836260966805619,0.5464356495602747,0.5562934263857584,0.5579499198434914,0.5610531395056144,0.5912103962324347,0.5906224842924237,0.5806978371316274,0.5600888892650842,0.510114559337596,0.45111820612447984,0.38086645253175666,0.29748121862561616,0.21684011396498937,0.22484402707972206,0.2942404981541058,0.37593009193368276,0.4419386307376838,0.49859013664070106,0.5510156598326232,0.5744710752892348,0.5703559910215725,0.5648346407726792,0.5315257534038169,0.5965325440765761,0.7120725112499273,0.8337258129328307,0.9454119615711907,0.9845505138725597,0.8834931570679712,0.7642019937270459,0.6430263920209804,0.5144184889099517,0.42525883980088386,0.44199889434657713,0.5051867925721933,0.5506754384517984,0.55838148037753,0.533226310536103,0.48538435761809406,0.4751787897666526,0.5313903971570264,0.5707570469213281,0.6126771126608257,0.6665817976963644,0.7366780523985845,0.8124503141276449,0.8823330531278075,0.9527559984828562,1.0,0.9795997141374064,0.935187138312227,0.8764576363426895,0.796472006769803,0.7096626827976467,0.6249848000920544,0.5376716300447559,0.4521885614288137,0.43077249953648655,0.4746305628199856,0.5161587082609889,0.5357158034533347,0.547854400480289,0.5570183597044789,0.5605761406364325,0.5745853073022853,0.6795625043370315,0.7947342090579919,0.8919298669648099,0.8669778948945179,0.7567460419500773,0.6745599067543675,0.6996445202105703,0.6490841121741635,0.579930881273274,0.47324076798717885,0.429556840421327,0.4979157815499349,0.4597054402983658,0.36165895706930673,0.2733314378829981,0.14758028082113572,0.03529677864714298,0.0,0.034796776745486646,0.1461410750492389,0.2718973084215577,0.35513310956421407,0.44601494029907895,0.5010699627316586,0.4813190196017314,0.48337941187703004,0.4689336907687065,0.4538628225920269,0.4240258827026495,0.3771831144838602,0.3690061164817,0.4137158479868077,0.49119054547155416,0.5789790763745595,0.6661154844187993,0.7604656878334515,0.8328604620255393,0.8895214097107602,0.9160299855989749,0.8794104970037839,0.8114446113270932,0.7360244526861845,0.6614151734713483,0.6006855960128319,0.551904361362948,0.500578680869125,0.4754401626899911,0.4128305560042591,0.38593825247443947,0.41307117032868,0.46701764149502,0.4837871666261231,0.45705482129996033,0.42672773430392175,0.3478814218566715,0.28622878756085823,0.19169405228731318,0.19146103389670444,0.2958932900525615,0.4179140494304465,0.46310295121935496,0.40720206476601684,0.44394897823033563,0.49332103097974844,0.5058457886543777,0.4940969487955833,0.45065147189471944,0.39251783773652527,0.33165666928735194,0.253403822458552,0.18258522701524127,0.14224323011389117,0.1656923604363798,0.2437121809214653,0.3244502627287962,0.39852782700690925,0.4587452082808947,0.4957439811508646,0.5188693713982304,0.5269402936932082,0.49724752775467973,0.49035565209974363,0.4883586826691291,0.4716180488441708,0.40774900187996055,0.36169165888590227,0.34924059974370847,0.36403655099107013,0.4000061755728779,0.44855957051125817,0.4612157280044884,0.4121930292350733,0.3181597141232957,0.28505432306339795,0.3799960102421087,0.48477768888786166,0.47741547656253625,0.4440822474555577,0.49234240938663776,0.546552829149674,0.5583774730870603,0.5194518820866434,0.4726496084398062,0.40759014442195873,0.3426938323142661,0.27483166435501705,0.21371561691461727,0.19978543386163006,0.2563807155370892,0.3432759482591785,0.427702030782962,0.5198651931607441,0.5941097775565458,0.6535121276993436,0.7034563068009594,0.7128369847162657,0.6909677569344481,0.6706344631578482,0.6420857839334739,0.6309222136651695,0.5941884869372798,0.5357084853431071,0.5383432634035916,0.5632719300200186,0.601261905549749,0.5926708411626098,0.5491727027792801,0.5060638710498062,0.41683281735836264,0.3397406204425115,0.39899697640211684,0.46884629200225136,0.4035303407661033,0.4067293977644959,0.46261081229322043,PM
0.6136403554729775,0.7242841482252427,0.8135849465069374,0.884701976187861,0.8712366037567429,0.8419994110176301,0.8257755732493601,0.7868528319099601,0.819658448642981,0.8714075681179567,0.8779156519803912,0.8953947996633014,0.8844290020492975,0.8981079252885715,0.8884339465711895,0.8826380305933315,0.878414788645987,0.8749666334428889,0.8734021122576197,0.8498367192020577,0.8235934909374061,0.7984661105955189,0.7613769419731433,0.7139671718640308,0.7353790828856299,0.8004194229880275,0.8657569350173286,0.8990005832803485,0.9001543074569485,0.9001547501778271,0.9001498462043296,0.8966524749100424,0.8508542107262134,0.7659232857085163,0.6604825609017952,0.5589765494603443,0.47571350899705545,0.5346772484187272,0.6540901580688301,0.7644730526173191,0.8538513541320141,0.8501583772286772,0.8120835887198901,0.7799871420915956,0.7252048242929137,0.7408846738856738,0.7991772374401274,0.8325079975429643,0.8490923059695179,0.8497612537288033,0.8497613583662593,0.8497613583662593,0.8499751324983258,0.8623320458982704,0.8746338661566719,0.8660980409155075,0.8498546117673795,0.8338123108045359,0.8053413951477459,0.7520488569764154,0.7142268512334917,0.7802833165001806,0.8523858733888119,0.9254990298896475,0.9675192207432683,0.9883511998723158,1.0,0.9841075345719572,0.9756130694454619,0.9581728859078167,0.881187223168526,0.7790489116599177,0.676757748977102,0.565935035472215,0.55701290761289,0.6731958618157394,0.7860117764487438,0.8959385122364791,0.9383363241770786,0.9057459027200911,0.8553201718715187,0.8142656953129217,0.783877793521782,0.8363893007462018,0.8776251782975972,0.8927320664610532,0.8873294817156419,0.8642212937449756,0.8675330616204686,0.8818667536472065,0.8793120311579177,0.8904844493652275,0.8999959229378636,0.8911993926766977,0.856712815601326,0.8351648077203455,0.7874145443007468,0.7435880096143723,0.6956912874321208,0.7485807303765393,0.83121890084238,0.8954395261010353,0.9552357934892086,0.9936647104210783,0.9780459605576066,0.9573735821801943,0.9246545088733678,0.9001485371942382,0.8701298498757835,0.7826103038361722,0.6652469864695751,0.5836201980643088,0.4841613682971917,0.43627147768820773,0.5534755411431327,0.6744089567829592,0.7664232605122328,0.8658544997073552,0.8607185035710652,0.7971039059843728,0.6901697953494965,0.5839772366099005,0.4582713634815341,0.3116461984501271,0.17770609961614703,0.11194228524750915,0.04808110553192968,0.09395209628247825,0.1254563173463521,0.16633658638467752,0.29070520498753893,0.4374295325394426,0.5652305856986954,0.65467261938407,0.7611654910875982,0.8150222562261025,0.8440108149238634,0.8748458163214963,0.8904370550212102,0.8981834327407299,0.8597293972880298,0.7935415157309729,0.716200873746371,0.6393581515248394,0.6010007789548917,0.6337238481578868,0.6987176394912726,0.7440554817134863,0.785727415169851,0.8042187845525781,0.8143626053506443,0.8119379040460171,0.797947314193701,0.7983945491947848,0.7894074109135358,0.7896355718411394,0.803584071316858,0.808067223135648,0.7562353501156718,0.7160311091150025,0.7237674081124501,0.7628103036159555,0.8154385825138979,0.8422518169129614,0.7423599446214402,0.6446518594321047,0.5292313266548159,0.39327669349166205,0.2518104230836422,0.13343046847783224,0.1221126447003984,0.24144391667979548,0.36497583201547235,0.48061686497848877,0.5997898070176224,0.7028959296697055,0.8119998638592367,0.9014508041847762,0.9152449179204751,0.9218959694370792,0.9227296199240884,0.9101269404266592,0.8743638380546654,0.8071689259292594,0.7296357798089019,0.6541440806349543,0.6258685637819923,0.6684647714803047,0.7269848171719593,0.7623723825529938,0.7835589574349315,0.7966015194794354,0.8106195517306576,0.7922851619762907,0.7868885194746085,0.7730712664684898,0.7877858307791783,0.783257456565126,0.7652935015266937,0.7587856766937744,0.7258789605350433,0.6701742999271882,0.6418110931289416,0.6755140094000662,0.7203209992469253,0.7552502347936407,0.6991615417282828,0.5964910956755425,0.4867193390069633,0.34093614716989507,0.19397014020638892,0.05751792400636635,0.0,0.09266693293892203,0.22050162343888813,0.3563877574092591,0.46030271561143765,0.5717464829842713,0.6744223097870021,0.7802294699671997,0.8219875217008656,0.8383370877417935,0.8226335038268706,0.8246740054815351,0.8339147406014531,0.7888038683370047,0.7161665238362547,0.6463915148946704,0.6183878999222063,0.6505993721348151,0.6966836836221422,0.7188078345824289,0.7546695337944476,0.7778385744276219,0.8104249542575737,0.8060740016650154,0.803362095304557,0.8030602423029807,0.7979204728203273,0.8138404971066207,0.814485912454499,0.8144707866531613,0.8082128433225693,0.7558277077420774,0.7012941594972277,0.6990994630143739,0.7496479473485751,0.7780046955673061,0.7989851913798107,0.7119398650849469,0.6032811672621579,0.4712009929579528,0.3419254494242101,0.19743226264495384,0.08730079416607417,PM
0.8611584036024329,0.8314158057016519,0.7585025289694469,0.678895514257464,0.589038101388466,0.5198361313493658,0.5659714092318131,0.6452465101613827,0.7221208846883647,0.7889794566264108,0.8439621029725988,0.8892272733009632,0.9067650277952186,0.8810926515085358,0.854839326957407,0.7729462954643864,0.6454577687445839,0.5657686288770059,0.6761851388541693,0.8105309911267815,0.9077797751986614,0.9493708363042401,0.963709752679458,0.9042698278252654,0.8375661273814874,0.7517410099172155,0.7403536475022161,0.8039780179630736,0.8722046599686317,0.9242045461208424,0.9394864375641774,0.92542167944407,0.9289027557380507,0.9065459452339075,0.9090589602032413,0.8866267991092558,0.9055002167446657,0.8692407839320051,0.8591563726182505,0.8038636470824452,0.7270675580254347,0.651859333049079,0.5786668725954529,0.5358198632399533,0.5878200289719011,0.6521953371836187,0.71719238575744,0.7544807436796006,0.7865744183772057,0.8056224360983357,0.7908760269244981,0.745942408481862,0.665341198971678,0.6895266444349994,0.8220774792384828,0.9086159708067401,0.890294708001786,0.8759240957793333,0.8356062587633319,0.7799943746160514,0.684335713192386,0.6567157142604483,0.7231098617187381,0.7803379596344211,0.8049505545135078,0.8070674658376049,0.8234237520507657,0.8269504229730513,0.8075899406600406,0.812042810169106,0.8213628859260318,0.8300326335332295,0.8109571362102344,0.7643564789712576,0.6860561798082285,0.5989961940034174,0.5220910270819816,0.5371852374103963,0.6198039040136898,0.7141094779766357,0.8048726507533503,0.8685639878050413,0.9002684514556636,0.9213812194746964,0.9207180283154148,0.8848159257359072,0.8021351404427728,0.6805026605234108,0.5975301250954059,0.6844906577548411,0.8388750629014874,0.9691132694958675,1.0,0.9990353339384104,0.9638158641034469,0.9048706845072854,0.8098750958472234,0.7428039021314028,0.7838392622175876,0.8621449507018983,0.9095209466741556,0.9196375520913396,0.8926032282151661,0.869980355443392,0.8745136638779423,0.8760849444387908,0.8588915538159245,0.8599784001309105,0.8542182452154155,0.7878044788578915,0.7122082600857835,0.6336046201490868,0.5398647629766362,0.5156651593513777,0.5743110903246587,0.6426974020541776,0.710017025663868,0.7444994473633937,0.789658952237323,0.7888440159488912,0.8230200876385894,0.7828737177787639,0.7232318203382571,0.7064744706837089,0.682022727866296,0.6350342328501846,0.5676136130603187,0.4943140069823464,0.3419542031765177,0.17402977668700714,0.038994927791804024,0.0,0.022865264688893383,0.1292399956687671,0.29556188832930186,0.4560242378836348,0.4807554947386041,0.43384673649111694,0.3823053273375283,0.4095595054194643,0.5019562750124651,0.5852322980446383,0.665913965204993,0.7467287684760366,0.7600941400331509,0.7452608111212431,0.7645186484324755,0.7720716338978519,0.7748540756075899,0.8009436792964895,0.821317210679184,0.7879754639198326,0.7129832458325209,0.6309684110843472,0.6051179410037797,0.66354075760513,0.7640351376612093,0.8575537847273473,0.8931187666849851,0.8534941784937979,0.774887960216887,0.6329466176715091,0.4933581906498574,0.40889454627460253,0.4525645948044259,0.5470043013989176,0.6755270377564422,0.7869257420303493,0.8386754797452198,0.8364136771803041,0.8159659729289146,0.7826809825955996,0.7250410576881894,0.6233837649702885,0.5351396875202683,0.4528829772023073,0.40365005476603955,0.4397508851172569,0.513695605470633,0.6086027310267781,0.6853765175157873,0.7324786471167863,0.7234557285613796,0.7324311310413973,0.7247860674145894,0.7317020597423891,0.7430544265271593,0.7311566517505188,0.720112211944679,0.7193958580095812,0.6959035816158501,0.6446393370521744,0.5632356216433543,0.5475330261594795,0.6001771163398031,0.6950793466458105,0.752682942644344,0.775274501690161,0.7666503095498962,0.6681741151943204,0.541676350606088,0.4899004458024132,0.5234495891475843,0.6287759506411739,0.6721047025728524,0.7170272533340301,0.7098994392285851,0.6819107026277162,0.6416193892125106,0.580063024133942,0.5087975691116258,0.45107669484937496,0.4312988682225898,0.49058683998110997,0.5593713245793772,0.6412905437739473,0.722323801577522,0.7638849259144811,0.768818001518853,0.770655689806218,0.7946834011376138,0.8026759339324823,0.8128544551426957,0.8260694704039304,0.835419612357839,0.7969601459776667,0.7478089391935514,0.6623605611756904,0.6247057868809982,0.6622278708566398,0.7492190832976622,0.8071612623550344,0.8188549082407057,0.7470362340383261,0.6088768411097867,0.46595351145478503,0.3715793430526073,0.3938818497250214,0.504916144991089,0.6330054544423627,0.7415579974300428,0.7709112822819577,0.7805217280557475,0.7755515936195936,0.7203499855705635,0.6629396480016974,0.5860636925439833,0.507293834994373,0.42473815733786946,0.4104497039208468,0.4701037062334814,0.5687061185656468,0.6459708538638456,0.7234483882613016,0.7499195422532967,PM
0.307997859176222,0.30921579783762665,0.2910141712824559,0.2911238480314875,0.31907189566478866,0.37729940157857955,0.47022471821033696,0.5706857157561198,0.6712745173382322,0.7749214497130335,0.8789370050373129,0.9689765045168195,0.9744738520091079,0.8866687400328206,0.7774906072601064,0.6694631322919262,0.5646264045986502,0.4492828393753281,0.3338943603158069,0.24728353599428043,0.23124594392557585,0.25198821536697213,0.2936621915567321,0.30141492821443183,0.2889045188610089,0.27622335452319957,0.24988663364575459,0.20277214124697363,0.228256684408362,0.2736372002681611,0.2915146640766908,0.2832582377159363,0.28298472314095946,0.2824811830924907,0.2700224418907111,0.25145371353868695,0.24380379547505004,0.2282168007458405,0.22411752753632186,0.2710812840451098,0.33181082853717747,0.3535983891980661,0.3542860733320823,0.35058224812611893,0.3366262541057994,0.31797393311519473,0.3243973918280414,0.36189844979819874,0.4236768316322941,0.5191222740107984,0.626054816303208,0.7268116134180658,0.826858040299248,0.9220629636003488,0.9558808990942964,0.8755798104522179,0.774926811751024,0.6631290917219133,0.5526843204598255,0.44988696690692365,0.3367901050065014,0.2783574905871413,0.2565426573156584,0.2675556841860769,0.2918484206483325,0.29628691318942746,0.2754428281189223,0.2561367886867085,0.21240830962629786,0.21690713365667103,0.27246605826894044,0.31208795735505834,0.31399499733202596,0.3171600849190037,0.32129958502644484,0.3320130782535955,0.32889195693167794,0.3225716095393323,0.3191696677493634,0.3051687508363501,0.3025096612816114,0.3266482912595374,0.3834229339352353,0.4284105222308652,0.4493940428241041,0.44220500027666265,0.4260509958799652,0.4152204901247396,0.4239417138033339,0.4698244178010529,0.553488615905525,0.6551866323067363,0.7586630329000092,0.85862412326698,0.9546023967841175,1.0,0.9258039821719248,0.8202281534734794,0.7073261043760279,0.6058891400090265,0.4925743536315115,0.38827976285387455,0.3216903273722611,0.2980932625425945,0.29238628625101715,0.3026392236453961,0.3112519492628154,0.2949279928286863,0.2710745018998182,0.2193155971753975,0.205664278225429,0.24608888230957282,0.292044229666351,0.2847666292518096,0.27303950422454815,0.27354055805314026,0.25993618032026156,0.2449322389204096,0.23076320965931973,0.2194617988084424,0.19800145137902403,0.18621435047037016,0.2164566426083918,0.2763460550868371,0.32625121745574903,0.3704177955794612,0.3937658080241797,0.3832407845112753,0.3722237678252416,0.35532197902259366,0.3208627887612323,0.3069079788020179,0.31702984491462693,0.33064525946931056,0.3205313860329566,0.2760395832921203,0.22481543959252326,0.16735753480315863,0.1301062479044104,0.1396847345975174,0.15712434382543838,0.17737734999571853,0.18416426202139702,0.19891986765524816,0.20387720373740192,0.20383867740288997,0.21972576996949034,0.222725514759476,0.18280966669441545,0.1408935767198618,0.14048800760391478,0.1842713996963039,0.22249079991118403,0.2508397082505964,0.252984959313026,0.22131785497811718,0.16464189429952603,0.16298666531693362,0.09549363096319485,0.04447124279883541,0.10252090711288941,0.2096005232678011,0.32519632352654027,0.4408609340409124,0.5549012207948434,0.6555479805227149,0.7084689705129317,0.6206171052007527,0.5238276022027852,0.43891489483452295,0.3894154385232329,0.3585879195148891,0.3511962770185697,0.36233354595914946,0.3784391545340675,0.3823395220282295,0.3537840729231725,0.2985846424648466,0.24612664396706707,0.2315625548584741,0.25489757943286717,0.2567521804296895,0.26062227722049247,0.26683354076343413,0.27522652956833893,0.26884784416381,0.25708886766395267,0.25633948079111546,0.24005769066523053,0.19264447680552088,0.13703283322421678,0.1366140675721197,0.18765877795109587,0.21888016599985205,0.23625962094222341,0.2302757406299416,0.17611683474941575,0.1394683271979451,0.1258328859345652,0.042734048205550934,0.03490189476713157,0.12601011701234022,0.2270461771547656,0.34004274530271905,0.45319639697593317,0.5455534019997832,0.527442171857301,0.4289318755277387,0.3501095353346444,0.2997378782713125,0.26834719651678407,0.26132436382216495,0.2815752382367096,0.29388864770717005,0.2936432097438648,0.27082244459126237,0.21355629394013986,0.169129397519729,0.1725697497558185,0.19010829473737045,0.1901320072449626,0.20767682147699817,0.21951969263130122,0.23307530333528792,0.23775930913630594,0.2373444761742216,0.21785955839065396,0.1701320735441434,0.1355907601715729,0.15888684557961774,0.20817772856029837,0.229010588930751,0.24880762497645614,0.2356212227134944,0.18357472135510067,0.12861544522120472,0.07776414333951331,0.0,0.0167916699184949,0.11525664173958639,0.21864656006567618,0.3281283846647458,0.4436275941144179,0.5512055226209327,0.6505290919410163,0.6483649289155777,0.5511147526654829,0.44923966659316816,0.3559726282438911,0.2947154174663815,0.25640833823005726,0.23604156374556906,0.2307232690515657,0.2518115696274088,0.24536699139621598,PM
0.3134469418300332,0.3006931950689711,0.2685769379410663,0.2642510049563167,0.28422801401639575,0.2921950679992402,0.2829057868021081,0.2505858506163592,0.20347658605950714,0.15855442823629717,0.1696532850197312,0.2128777839243463,0.25315806538498564,0.27799805183684434,0.2840537231837974,0.2786326488059485,0.3349793378825203,0.41655848231211734,0.5038627299265692,0.5819151494651051,0.664930611443264,0.7545533478024904,0.8325074592479988,0.9023954265965233,0.9541627010604232,0.9122004603403404,0.8310896087485502,0.7470938731513095,0.6644881293571796,0.5771433568476318,0.490184433156029,0.41084937470327554,0.34569651263691825,0.3402331012213218,0.32192059801312345,0.2880934824570587,0.2688846527873505,0.2892732735825061,0.3044812984132177,0.29498526225336397,0.28449599212739396,0.24112673033033505,0.19560918490683665,0.1613206836311234,0.18172691339261404,0.2213862047002899,0.2516203502531338,0.2695961075940614,0.2636901713063946,0.2961546320387505,0.37686864894693506,0.45789005273828076,0.5332920522385871,0.6149507686186726,0.6972755873786798,0.7864036567055019,0.86651059901551,0.8856903188978773,0.812467265105342,0.7298319104413724,0.6444481072832264,0.5625000863071357,0.48025071095243343,0.4018427477360538,0.34276509565496927,0.33038918150342655,0.3122248811774575,0.28295970467205067,0.26006256832103913,0.26685676329215435,0.27526140941601773,0.28497435046118635,0.27163297599535086,0.23378010545113082,0.19392372181990658,0.17662322055651725,0.21148420016912084,0.25058114681180643,0.2771268141719656,0.28226325934080676,0.268923269848907,0.3220507524400609,0.40367959240309137,0.48297113753199516,0.5631165438242114,0.6481929666070676,0.7323454758601895,0.8207997966020959,0.8939792772715802,0.8902831030831382,0.8158282404564092,0.7344754349928455,0.6515016779629592,0.5696939576085271,0.48681956431011697,0.4056671572993764,0.34040036263249007,0.3246131412472515,0.31276430267121547,0.27758207197592233,0.27443255243698883,0.29787093222787786,0.30415952713468997,0.2951729162595773,0.2669681167817588,0.22246261851875304,0.17435368771933057,0.15952362874452808,0.19912475223551374,0.2416321471061058,0.2741168051338734,0.31085385769176055,0.340849032701001,0.3647538462757949,0.4324606321155309,0.5135611227325692,0.5943001305183291,0.6698027826548891,0.7568978189672659,0.8426219212955868,0.9265445039860105,1.0,0.9828160044738441,0.9050693694128698,0.8209590093060295,0.7384829632932166,0.6539762196149237,0.5734981028678257,0.49271002155338106,0.4124076938543684,0.3501555066734905,0.32858470834581976,0.3008109080614141,0.26079389038840595,0.23683594751993264,0.19448453131404886,0.11729600376102045,0.033202211526290215,0.0,0.03441210195203581,0.1179922835901277,0.1895354946812,0.22326680665904952,0.266441309807137,0.29767737630302915,0.31768229771000933,0.36991757618795806,0.44718370258974094,0.5277683390482091,0.6111536675227853,0.6929780910808914,0.7411102365972915,0.6797577349505355,0.5971901840888738,0.5136541299873714,0.43175536923774294,0.35756156491091895,0.3105868839494186,0.2874167601471138,0.25205639834982607,0.22132125337152475,0.17676345236301705,0.13594434153937351,0.12384348987891336,0.15687345554709964,0.20429775785648507,0.2453855942717209,0.26562316978205414,0.2631286635117023,0.24912549455258048,0.23104068204775263,0.24657881521896186,0.27956272133277493,0.2871676344687659,0.3051690207410964,0.3673242151527356,0.4458242451922567,0.527491176179383,0.5882781538201249,0.5417547273663983,0.46079061535722454,0.38228611931176304,0.300785192291007,0.22941697775368608,0.2075019764209738,0.2414540040862989,0.24062990685559926,0.21284911148030017,0.17082854825126947,0.13835105337825837,0.1477770119534938,0.18604899035894396,0.22704317100046922,0.2454696176319502,0.24199592664879832,0.22919134695541254,0.2083402674951782,0.23089094610593097,0.2670579541288638,0.2930204111902752,0.2964569258931098,0.32888819226062793,0.40349390932991747,0.48948412050062906,0.5598119745798504,0.5283150426940972,0.45591669689463865,0.37236555655349424,0.2916863165552077,0.22818161376435153,0.22004077482723372,0.23362112541684588,0.21691800982064247,0.18199795622406456,0.1407147341981354,0.11686798288324352,0.14208621725146164,0.19087466272818943,0.23686538571132698,0.25658744240758646,0.2659725246742337,0.25183050230409076,0.23233284737062476,0.24357628942200904,0.27710521796001797,0.2958990818159526,0.29426686396335056,0.3268061737032717,0.4037777132033611,0.48365122394556126,0.5647220598677958,0.6456910187036553,0.6967949317881543,0.6354649277378659,0.5516158003830092,0.476769394538755,0.3962827571206715,0.31488061574248416,0.24751921115343367,0.23781953740183814,0.24756866439562075,0.23200467902398114,0.20015728302947755,0.15660563588242282,0.12179807152320943,0.1211262119823644,0.1649861214234405,0.21281952747275912,0.24808002074869373,0.2566358609734738,0.2506528745030725,0.2249371449896891,0.22776782520098737,0.256985628587481,0.27607610884521905,PM
0.8996551496016842,0.8625890886039458,0.8028697345419655,0.7545767641463048,0.7864619476684225,0.852955758020925,0.9030569174975649,0.911599898908042,0.9038964566316245,0.8938462993267715,0.844821242974054,0.7706185263852359,0.675152140369178,0.5722857468786233,0.47560566550133876,0.4079557852084723,0.47022086875120706,0.566094599849462,0.6625404156406258,0.7628826706656406,0.8598542870840769,0.955369093865893,0.9999999999999998,0.9496837214983695,0.9045990049468875,0.8970351942060368,0.9111129494766255,0.8842778327146985,0.8897160058383378,0.8927032844211329,0.8829510626456338,0.8284789166706847,0.7665601619653222,0.7678466037660054,0.8309081032600698,0.8891224547440368,0.9090781731370483,0.9265316320651984,0.9365561442489145,0.9007248379832211,0.8414675610274946,0.7595669689375646,0.6669759183746999,0.5693071856129714,0.47492688407899175,0.45052682829427915,0.538276324917742,0.6352161488820136,0.7353176742420429,0.8323920706751904,0.926711684564069,0.9890583533173822,0.9428906259833698,0.9000224276048698,0.9053265980795198,0.8922403214186196,0.9049896173957466,0.9215296167193345,0.9085079259958604,0.8640979416704657,0.8079515677295308,0.7536871114029791,0.779616336686948,0.8488905573856358,0.9063660089464587,0.9240467093983378,0.9108934282970325,0.8995746323842349,0.8530131948605231,0.7751538634295443,0.6874310619244348,0.592077317061632,0.49461958337271406,0.39930633889210965,0.3941389896699605,0.48584151278679477,0.5848704525251613,0.6820607355056194,0.7779020265264915,0.875615726060464,0.9667756783960628,0.9938536651218806,0.9359977998643272,0.8987523224726899,0.9044503946943776,0.9135635551097563,0.8872480862422556,0.8648058522450401,0.8510066467877244,0.8384047150776541,0.8412604679073006,0.8261925805143808,0.784715192659811,0.7645101688948415,0.8095284463282315,0.8600998534417528,0.8715286261827508,0.8862049973245099,0.9221636728873994,0.9127238024122428,0.8565926958857017,0.7815686580974077,0.6992938014923333,0.6026677175730148,0.5058350280879298,0.4092600593915545,0.33265134092977,0.3821109225374635,0.47902289769487894,0.5789228438520813,0.6758643266994924,0.7741981126430326,0.8723465649029583,0.9643696897339677,0.9932794272366399,0.936271787337881,0.914683834713435,0.8982732699718974,0.8889649088580034,0.90092979799908,0.8775429825475014,0.849461376850998,0.8432669809844506,0.8684667490341915,0.8716180263026974,0.8732294858598904,0.8023650668643669,0.7058885651963684,0.6048386080145438,0.50763162934584,0.40928435933425655,0.3124326494141625,0.2145378106718987,0.11613835361927305,0.021028185297425672,0.0,0.08250872745794324,0.18212781402229683,0.287180527995059,0.3885967613136112,0.4851854789430641,0.5812904257880891,0.6738779867615627,0.7553246493684547,0.8312679853701708,0.8864820002237557,0.87068788638723,0.8343543042384245,0.8290525034002578,0.8008607731505275,0.7481287895195394,0.706573713956314,0.7355740861556344,0.7814289854980006,0.7998554223588292,0.79872837670522,0.8023729871745027,0.8212325463245613,0.8363619472610206,0.8666914459275143,0.8668942511907998,0.8568453469921917,0.8837236647609965,0.8558768946135753,0.7585273602566511,0.6547707865834178,0.5576845767666414,0.4567157332332181,0.3602598336923535,0.26376912377656403,0.16219219433986276,0.08474104892250733,0.11468927713164057,0.2098037185000321,0.30820333014424617,0.40540110385942874,0.5082078778145775,0.6112891665281137,0.7023593162064705,0.7825872439763557,0.8485550517175942,0.8606456083702319,0.8811085352920933,0.8733041951507914,0.82076765554404,0.7491759961851383,0.7083650978058131,0.7325548751887547,0.7939119794506198,0.8479832094523758,0.8754378281932225,0.8596510692904145,0.8478590224801725,0.8681101554857404,0.8570077782542418,0.8264203263092242,0.7373809067052233,0.6409827549520732,0.5445156427364957,0.44420467366383387,0.3470847528800658,0.24742632141103416,0.14901532349097701,0.0714583323969673,0.10505542484922326,0.20268063314332552,0.299747571608707,0.4036051974374959,0.5087637987891358,0.6092576973962534,0.7045649417248583,0.7880936956406785,0.8536170016086868,0.884860089291855,0.876705733693965,0.8537632954895673,0.7927461081493814,0.7339249624086392,0.7077326240112574,0.7531854958909803,0.8169895405439329,0.8544463374806945,0.842456479646712,0.8411690749409542,0.865883035647862,0.8561982234058665,0.8650376072677266,0.8623921612208576,0.7818680699599971,0.6852433950129062,0.5884064377491609,0.4897280052658879,0.3919271049394044,0.2943268776030481,0.19481223384796365,0.10045413257243707,0.06066634717540187,0.1386011990909497,0.242885341975974,0.3407538681049225,0.44176308615741977,0.5287460528246783,0.6139441803755634,0.7099222357914987,0.7937318590235907,0.8507329868175484,0.8686015549919963,0.8730993980261517,0.8418048012936818,0.7758237361453888,0.7209774621922853,0.699863083580744,0.7527981842926232,0.819560763818675,0.8592299714999021,PM
0.7158367500701424,0.6698138316494608,0.638706764360724,0.7020756235355847,0.754300018088716,0.7713408396876087,0.7418004907785232,0.7127998976802514,0.720900053821401,0.7274968088752152,0.6791184142491069,0.6646837859404693,0.7044753657815299,0.7806869867167876,0.8073015672459469,0.8340797988882489,0.8416862354059349,0.8200428998046858,0.740469808949352,0.6239076242042527,0.5413027185330392,0.6564886381906252,0.7992365665402517,0.9161533129329058,1.0,0.9271040155191468,0.8417754068774581,0.7849832700839805,0.729759769012535,0.6397701905119648,0.6338747004295779,0.7055219932248447,0.7565245088664883,0.7836485165299765,0.775989517642504,0.7450836011872735,0.7457031805589471,0.7557936546457231,0.723113953300758,0.6849283402534283,0.6944373018254613,0.7472770110965303,0.8107213851047739,0.8429093389416487,0.8541303924982477,0.8740580187726357,0.8642422592573356,0.8201058884356032,0.7304957931674894,0.6220536727290229,0.4917879605873816,0.48052303754739256,0.630979135547646,0.7794510927076868,0.9135794676412559,0.9512216278922478,0.8892153193089518,0.8113794827582606,0.7493294592846196,0.6848691662543347,0.6977156564914413,0.7392790136766738,0.7750375995218182,0.7719450967466983,0.7327980894217578,0.7023555929172938,0.7010959870317404,0.6875667996444941,0.6520423694447564,0.6484894865751016,0.683507995037596,0.7370232026181718,0.7901129212003593,0.8268558729335513,0.8393152756431128,0.841697886751902,0.8156653513341192,0.7063950654325657,0.5929556919950807,0.4570794247672971,0.45604936558629117,0.5977602848831616,0.7571528056148331,0.8849810353775718,0.9469285046470439,0.8882105358304626,0.8094356907651061,0.7382091716316781,0.6678710645304529,0.6312428480864858,0.6814290570905124,0.7400156230079178,0.7687287523477124,0.7476832995070586,0.7341833234636406,0.7483016519874361,0.7404216075498065,0.7063285224740916,0.6594379907394536,0.6676688682039229,0.7200186903339354,0.7767765790361718,0.8344465088482611,0.860412190507656,0.845299212609425,0.8174254194078143,0.7654375858325908,0.6563644661170391,0.5431676221604711,0.4059588678066195,0.4051394682182776,0.5561604829866678,0.7092729421492194,0.8723224513961512,0.9720459875962391,0.9639403084658289,0.8790029354205995,0.8185967499348763,0.7732642677288277,0.7007245500571884,0.6125845517652087,0.539950578859302,0.6002943804880356,0.6405133018834395,0.7188848429520966,0.7814088630444758,0.8123766887261077,0.6890041311366453,0.5345029965616108,0.4513701168185591,0.3148706270164765,0.14653605334823538,0.0190472718313619,0.0,0.06332029392660177,0.2222233441645609,0.37261167795522976,0.32670679288999294,0.18192101440575215,0.12925191208772802,0.22949548986156731,0.3689504554751659,0.5123597024946775,0.6129752586988015,0.6613039387269248,0.6890217170879378,0.7059781538261491,0.6888055741748182,0.6445887271432627,0.561890676834544,0.5295420773830122,0.5089460505222458,0.5343717186443921,0.5706533354743746,0.5876773909903568,0.5578445182138347,0.5870837488463003,0.6096824295755345,0.5756289810306559,0.4916452398657123,0.43350949632885705,0.48294619894775437,0.5577345055598641,0.6212068629671839,0.6871931959129736,0.7630268334028507,0.7458290518840984,0.5947755424881409,0.4318651839266998,0.2815765865255395,0.15453597485005277,0.17238671262907257,0.29378306956813516,0.43848606148694547,0.5742987396864292,0.6487687603476466,0.6809020953883236,0.6391842582525076,0.6175518868187151,0.6210586127815256,0.57218306189709,0.5143766000476386,0.4779779258494665,0.4919893033587748,0.5311768279854405,0.5400889598666216,0.5460531533413153,0.589435334117069,0.613566503217549,0.5921201383196024,0.542533731573493,0.48634539134229104,0.5388266410570353,0.605100970972897,0.6794571110640186,0.7399119158901319,0.8176160181492849,0.7468455259269096,0.5956522971902407,0.4428432242882039,0.28732680056510995,0.1608925449769556,0.14490763016142516,0.26807333413566337,0.41924547007375246,0.5533626155540059,0.656992269982168,0.7055985180904125,0.715791780335242,0.6836792177591526,0.6530719700988996,0.6022715818880862,0.5431926316055797,0.5205796189718566,0.5544880363910281,0.5832475586733823,0.5958708718299635,0.6015754496541472,0.5970259686960677,0.604171700666682,0.5864900119036562,0.5236371843284635,0.48644306334120735,0.547453396423129,0.6196670668441815,0.6720642517331665,0.7374109416633781,0.7586341327392878,0.6389746439622677,0.47447691644512613,0.32050145407081754,0.1914463924911276,0.2045427117004759,0.3308567730255527,0.4647464404879891,0.5864767573538261,0.6599404638369748,0.6486438067671054,0.6504402159096703,0.665454707726429,0.6150888559952552,0.5589449513781748,0.49903625231173,0.48908803872866446,0.5375637416051546,0.5633156307660805,0.5667506089879257,0.5679513414850801,0.5635770495801475,0.616562998665338,0.6157345908793435,0.5637577639322133,0.5050292752310135,0.5125905360938354,0.5749201322585771,PM
0.8603550162395601,0.8793691885450583,0.8636521648230584,0.7850405527919717,0.6945483550014027,0.5688506870048586,0.44079395082855477,0.3799032834964393,0.4965260891582295,0.6117129445597724,0.5738723838226871,0.5337364154001616,0.6525716438272848,0.743791729428299,0.7624412432538454,0.7611440872033439,0.7361071348227988,0.6933296144999277,0.6848907723255229,0.702577192483548,0.7522024557061782,0.7821146978859499,0.741259336901849,0.7442880676153285,0.7443202484096938,0.7223653562704406,0.6990163764563402,0.6977757192995417,0.6917030811484572,0.6857265652384923,0.6801024708896612,0.6669682231914322,0.6693348732074504,0.699401700881106,0.7113046121872557,0.6982097542429448,0.7092279295246735,0.7616362652993338,0.810055600819279,0.811121123944595,0.7730689267551201,0.7611870379488659,0.7373271587760843,0.7095449019203199,0.6998145063557573,0.7236544477590225,0.7301753494153953,0.725459426838281,0.6813309059250328,0.5963464428680361,0.4834523687207479,0.39784595687253876,0.4747385781694522,0.4593618581787773,0.359365657777051,0.44862673130348707,0.580895538480676,0.6760440697548793,0.712865193755543,0.723569633561179,0.740766953937734,0.7565319519007172,0.7155548005497163,0.7095436948906908,0.7525875950456831,0.7642010332845066,0.7865418122775445,0.7617841172665365,0.7580493002092883,0.7696551191578882,0.7772393519594845,0.7724302709797088,0.7837653081788201,0.7863259456193239,0.7662964701278652,0.798119051780648,0.826945501838857,0.8303990359529791,0.8442418786978445,0.8565501811058889,0.8526137233914257,0.829031279945089,0.8310376345001043,0.8509000715662074,0.8494090688901919,0.8456238317407827,0.829854160381096,0.7962168534480041,0.7952789580451087,0.8112945291571059,0.8271681015498356,0.8313867706727853,0.8653244990239424,0.9011908988656128,0.9249374528427055,0.9461550859846923,0.9129036886866917,0.8790384557792983,0.8912748198998237,0.8935889921799642,0.9144752768268294,0.9145995611496938,0.9509353926956345,0.9635017662647014,0.9658908975021605,0.890322136886347,0.7969105349763055,0.6817250894392854,0.5704785503947267,0.6355122232522206,0.7682447462795752,0.7982468011807891,0.667633142697877,0.675085748309292,0.8192795429063064,0.921130092559717,0.9680016913923737,0.9860063375177521,0.9391228035401573,0.8831058557343052,0.8863579700980306,0.9109375689841146,0.9026492482507846,0.9473876199827354,1.0,0.9782848043980916,0.892427644020465,0.8384541736075874,0.7889686476324433,0.7948040374507874,0.7764293561184665,0.7577914090618485,0.8058424650500626,0.852519520632022,0.8462739063815823,0.7799263362490789,0.6397558759223152,0.493147576418866,0.34055104354827215,0.21029415293250953,0.1892816647256934,0.30221085505260703,0.4108146422816059,0.3349890474744015,0.32369548088255673,0.4291130955445155,0.5639138664203909,0.6914743860144084,0.7959903764703915,0.8444212841340963,0.8394151339904363,0.7933011090485644,0.8020029390410199,0.7898734625401991,0.7955167053434398,0.7827666867173617,0.785546663024479,0.8268457969955652,0.8161658788131341,0.7882226617731813,0.7500909789538897,0.7237765901640847,0.7393425090366526,0.7084805623514603,0.6822331079503074,0.6750402316386594,0.702828526329176,0.7047510202138678,0.7216394534208801,0.7467439688514155,0.7447117630915274,0.720055407304363,0.7215721664305166,0.7460366564868117,0.7295131899440817,0.7173587786235842,0.7160550636427025,0.6928243599781414,0.6662129433057933,0.6661543021933634,0.665329939532028,0.6610144965195017,0.6675565471035956,0.6638901413707003,0.6426561398334574,0.6407245874054279,0.6523338269133312,0.6516554521627436,0.628100067463258,0.577789813807768,0.596297322994106,0.635116239976643,0.6190686337815938,0.5713535034410029,0.6112579293231839,0.5803808309481315,0.4529989522579614,0.309917311514206,0.16056704562998458,0.02901907835363815,0.0,0.0830527440519031,0.19820326669304844,0.21309257599004283,0.30494992977082536,0.42949662503986197,0.540887709643254,0.6119203330858403,0.6316381560163054,0.623074289299594,0.6141982107485218,0.5915755761563597,0.6031746765960033,0.6272211860860653,0.6656369336403856,0.6730034487141605,0.6995018081337294,0.7006637673528218,0.6341786315954057,0.5889643961103728,0.5876334263965441,0.5879646150738234,0.5989633136218879,0.5681726785624805,0.5638287990069308,0.5864739506790233,0.5930989436850558,0.5963878918204912,0.591923778713551,0.6169108823049756,0.6228680293356375,0.6451286172481829,0.6333567262379756,0.6496278190678737,0.6122954166881298,0.5656187407295743,0.5733376888499784,0.586553212500097,0.644936405935324,0.6579130803598288,0.6597135310067301,0.5926479950211911,0.4582707556107337,0.31679283762646815,0.17669816617867173,0.12762497778863846,0.19661555309095569,0.20077721484610933,0.25583754721293683,0.39217370870272017,0.5381246941244404,0.6491822609006705,0.717173328978042,0.7538961930121957,0.7576951434437076,PM
0.7463896677542867,0.6749682460596813,0.5902476679643609,0.514980364097454,0.4451963371917733,0.46891687527157755,0.5561812894081974,0.6517940087611223,0.7339618237394143,0.7783038748624471,0.8281535940047879,0.8254361708678895,0.7766684386347062,0.7165333424400324,0.710689684798619,0.75493901791552,0.7859436168035341,0.802928524217001,0.788368674347836,0.732015849715935,0.6380785481383691,0.5280179882272864,0.46866458682927803,0.5738026293052254,0.70657983757595,0.8505843630393883,0.9509743978781131,0.9510377140141921,0.9400642447792045,0.8998649101809031,0.8576866585918008,0.7866520374228494,0.7057954412388598,0.6438430628265248,0.6655339215334823,0.713742461408716,0.7539959819365323,0.8003264992150854,0.8079423897755751,0.8076740756282232,0.7526265120620601,0.6734972829373516,0.6274285675616929,0.6463519132425528,0.668619419273885,0.6863399023603658,0.6681737540019101,0.6255575699280818,0.5296919789489727,0.4148916848216939,0.3295214963143689,0.41404571480587915,0.5597413815383261,0.6915346652633434,0.8284407657924646,0.8598522613153863,0.771756658461511,0.7133067933789041,0.6944206178973826,0.6462581791925355,0.5822278943838657,0.5056452227359101,0.4426727731744955,0.4600026514153268,0.5039154423521488,0.5311162852526641,0.561941631676099,0.5628835231367817,0.5297986995850228,0.4759703885242095,0.4902107979826109,0.5212136084709589,0.5566809774407133,0.5869257921553199,0.6058622102237456,0.5719448191528351,0.4827967978997809,0.36661339510060786,0.26354635623383915,0.3367593167784979,0.46719346632607506,0.6124453944306496,0.741776200326671,0.8039704072688734,0.8025343844363171,0.7777323974563095,0.7512204983349715,0.6959609538884548,0.6147465461287878,0.5417356854584496,0.548737040016718,0.6170271732645003,0.676219370123563,0.7321407241340601,0.7812079453870355,0.7829811849216997,0.7553159810187302,0.7431555115339075,0.7408545887932951,0.7582386751359063,0.7574301900420797,0.7726064287887344,0.7754609235252765,0.7144773657675021,0.6168040049408989,0.5069567138240947,0.42626212193133606,0.5056400230120293,0.6406673044273798,0.7889668816481858,0.9169746303016604,0.9807469754574543,1.0,0.9707203730426839,0.9282147562471668,0.8503321619618243,0.7685933429114571,0.6704074039608288,0.6210584413631541,0.655362514747766,0.692303312348979,0.7177121521309493,0.7224410807015373,0.7394583818282388,0.699304722554134,0.6552826487146537,0.6317721033437755,0.6225687706568328,0.5803201773500666,0.5496469835858284,0.5458898632258711,0.6273129298759739,0.7266532153092968,0.8112714599468829,0.8771147529763832,0.8990280628445753,0.8580559249969504,0.7773365617238359,0.6446432030928846,0.4963058860552434,0.3604114435686947,0.2282059807738066,0.16583325993200093,0.24482075665304492,0.3656028443338064,0.4764381510505977,0.5868359449944327,0.6767778041191392,0.7037616431397025,0.6817944637776616,0.6734815684392448,0.6573546900713003,0.6758574400822974,0.657826672239763,0.6906730409552693,0.7078090066849358,0.6605753794291878,0.6098982295584063,0.5502287674929685,0.4820469236889151,0.4461620321634556,0.48052988172282474,0.5617302037275054,0.6394531604590044,0.6975128882159138,0.7104407491182716,0.6693052563565529,0.5692303349076036,0.42395327205652444,0.3130738455262234,0.1919971731545278,0.05778940671191801,0.0,0.09275967783339034,0.2120502139218523,0.32828669852347314,0.439769007707588,0.5151758517891962,0.5239345085835492,0.4926417450716434,0.463150410468975,0.4312952798966885,0.40106025385124067,0.4255414780060591,0.4844373345153494,0.5066910611297306,0.47579901582885364,0.4418241287154778,0.40021544338229464,0.3745348124002663,0.39661038382735603,0.4727030501176426,0.5408005765397306,0.6003145982958591,0.6109130456084282,0.6214845150580408,0.5804403147923773,0.45560041465166945,0.3150288576595752,0.1867934319731357,0.11324193006519767,0.17910630007899941,0.29447407518282276,0.4233956373190986,0.5309223116582964,0.5879257642671392,0.6053277816969058,0.5869744502088023,0.5697968907901361,0.5439254066520731,0.5861127250785154,0.6619382144592945,0.7302175054935658,0.7395580229299963,0.7077375932000711,0.6650835949537148,0.6215079136361119,0.5868325833866455,0.5456783607723548,0.572289299949508,0.6619789053567251,0.7515307641943587,0.8122220708800088,0.8535593484995747,0.8514338425573644,0.8244777266186079,0.7074989599942545,0.558839988211588,0.4102103955046563,0.27559440348751574,0.2043659161906275,0.2753123021436106,0.39045534533606263,0.5023502675024116,0.6134517183716119,0.7004940523875636,0.7280535290289909,0.7075411189896244,0.6875241326516606,0.6451081822150777,0.637391591607805,0.6447745435853869,0.7058079074497696,0.7582179780917739,0.7468589948124622,0.695791719904653,0.6416466740191225,0.5401251256661936,0.44523694958885596,0.37581386908342296,0.35673819079072633,0.408993398330479,0.49116128645722723,0.5755624145000353,0.6542693170634224,PM
0.579755427139931,0.5901097335451393,0.6109950544098202,0.6210936674378096,0.5896003088967974,0.5747193787255522,0.6128141714008599,0.6484906901769194,0.6160012651759414,0.5653172183298167,0.5759564307810501,0.5992971832694463,0.6359933905529758,0.6377821662819518,0.617399930510226,0.6207045445742838,0.6469764307653816,0.6529899854999246,0.6661283724421376,0.6838254687878913,0.72402502090458,0.7382158322094567,0.7523523800313696,0.7732778133947811,0.7957646068039068,0.7903571125308209,0.7964267022382798,0.8048109978684921,0.8343032966431547,0.8326154144418974,0.7979373159933107,0.7559710712032857,0.709251968737763,0.6332002831386854,0.5842037588101037,0.5303483210830855,0.4547549025178572,0.35577600701719003,0.31366246965333744,0.3592388461933247,0.4065619218447507,0.4340601601594294,0.4168124028775484,0.4006023762865847,0.4248512116381655,0.4522883933781747,0.5056344958544381,0.5610612715696304,0.623366643993224,0.6620960160403158,0.6139095164278969,0.5344265119582472,0.4684982697425446,0.41929245575101426,0.3738240910608064,0.33590711492236824,0.4131750755422585,0.5219280018440111,0.6331674255578235,0.6556111227034371,0.5707868859839085,0.45777505909741745,0.34568313698696507,0.28026459168829465,0.33293581280863505,0.3303575936753953,0.28070011215022417,0.302633935375062,0.4143491023810566,0.5146201104737389,0.6058695344861311,0.7051302232669028,0.7687271634519575,0.7400942998032987,0.7294494717517108,0.7196723066145361,0.7167810976249425,0.7279423231232363,0.7278441647055356,0.7449757941838633,0.7597126815595896,0.7747605935759485,0.7808483345035531,0.7884974922760759,0.7826330515529789,0.7960523256395193,0.7942023377914706,0.799542418910848,0.7798119886657355,0.776906453717038,0.788948604994935,0.8453501272448309,0.8917510738187797,0.8755205952134917,0.8603622862420703,0.8888185689433015,0.9605212191219126,1.0,0.9887700558115866,0.965282124301877,0.9400787822869998,0.8772750725161016,0.7992442851412709,0.7076649288974415,0.7123758520297816,0.8166381046618874,0.8319875070997385,0.8232239508100312,0.8145961710441587,0.7630445278898139,0.7252619182717286,0.797233127402881,0.8967759571114513,0.9709669477247891,0.9501366938963023,0.8339326827963847,0.7128720186997586,0.64507382177118,0.6969675991406907,0.7292693786790645,0.7061999746280128,0.6499363380725662,0.6468382627485525,0.6414142705958898,0.5491174026660044,0.44074641447857266,0.3447004917200567,0.22170993847378462,0.09411028284052358,0.010763536873376278,0.0,0.04634276830227391,0.1640605492827203,0.2923346917142551,0.3865192969571427,0.4608730159942871,0.5716676413225712,0.6837942092688714,0.7640227507549939,0.6953588205269443,0.6081276374660383,0.5818674798015397,0.6596526707034873,0.7207749253827922,0.7356121621094012,0.7426448635777243,0.7354778466963188,0.6469698320803388,0.5423829819059631,0.4911368560785401,0.563819944988083,0.663006625200655,0.7548669876950016,0.8375289203309033,0.8925075769952819,0.9142328143530509,0.905154112690028,0.8475875009795617,0.7827264628669308,0.7685847469879983,0.7959487872201976,0.7975064113335297,0.7422554803980224,0.7137883204184461,0.7143402789972582,0.7144610388070518,0.7176772948682175,0.7211353854675844,0.7174276554961847,0.7085042851918484,0.7150926693213426,0.7091849748801184,0.7007819370103352,0.695364186910663,0.6886887167063631,0.6664816057910938,0.6586289406591757,0.6482784442441472,0.6532440257119005,0.6331257080962014,0.6413721757562492,0.6582355692476645,0.6279824373129776,0.5339939886378189,0.4424863056327455,0.3365430955974942,0.23756281538589885,0.19026608163052394,0.2161726436064999,0.2595008712996494,0.1871765401537444,0.09604163881122085,0.09316591299609644,0.18264520868384082,0.30379338473491524,0.41412016265576224,0.44788017692519544,0.3580821908886622,0.275575472066107,0.21143340385232534,0.24562322396833558,0.3125562799820729,0.35719050714724654,0.4091843737033374,0.47133419732307,0.5503627936581967,0.5427887347121687,0.4828506262568051,0.4262333550673705,0.37462407601989023,0.352098415105496,0.33334342398361194,0.31467953879640165,0.35156510695235177,0.3504275005976929,0.3029563457202822,0.25082099878973674,0.20738029891682297,0.2496411507643792,0.3558884746336304,0.44864980661076714,0.5031166147378019,0.5511341653182011,0.6285690825550092,0.6819089383370205,0.7218070192552308,0.757531681947166,0.7552542385570704,0.7304196838090125,0.7213477406826789,0.7212110942437233,0.7138316549364947,0.6868404523535636,0.6687599635797694,0.6581381959075912,0.6280168452360653,0.602345539593133,0.5713814179531234,0.577348717258289,0.5640329653239893,0.5404744956943008,0.5494717574998473,0.5645250179958321,0.5468548743576722,0.5170328778082025,0.49366437161359045,0.4872308727290591,0.5426770205249158,0.5658836325538532,0.5273703533020191,0.516367439375665,0.5288913947820815,0.5427475927127805,0.5244878662450869,0.5161335709869457,PM
0.7446491151621824,0.7314796664912229,0.707809310498869,0.6966046455792454,0.7182356061192468,0.741062854990544,0.729558322731799,0.7300362479362685,0.687072804854838,0.6082695922907271,0.5158230690880488,0.4633743993305197,0.5096832273744387,0.5851479726700464,0.6566910591206008,0.6903346644736339,0.7280485457137904,0.7438297953228568,0.7315135222202689,0.785403117188594,0.912775179154186,0.999714064091584,0.9717365882433522,0.8518696065680511,0.7006992339744769,0.5431822460363969,0.4596755289081238,0.5789602965981486,0.7108291961886946,0.7902412021000385,0.828623155837056,0.8112100047295399,0.7835719341026448,0.7655187285574576,0.6821540661082648,0.6639355980236021,0.7302984367060597,0.7383342588482438,0.7369191003840876,0.7204138819099,0.7021539581326759,0.6873679897415736,0.7189432974530505,0.7419135656276077,0.7515019703980701,0.7718252164459627,0.7316659585224028,0.685581101287219,0.6120779049735563,0.5067880796621753,0.4413059542820683,0.4630347153853802,0.5418792184777357,0.612659185566534,0.6585026225944701,0.6898940095763266,0.7127814392787681,0.7013298888559745,0.7295681063866577,0.8575421956873872,0.9313571663452627,0.8829083157004125,0.7692908618032992,0.6106703536199487,0.46953750464564514,0.5196670130443768,0.6554341745865941,0.7515951436150217,0.7830660146377668,0.7925834194104007,0.7842852932559681,0.7428960254662775,0.6666530279036738,0.6401107238876267,0.7084635585099224,0.7291602791281799,0.7061787383503435,0.6790554736523053,0.6641492600041663,0.6838650843380409,0.7338241063590085,0.7666270958713883,0.800921833180364,0.8018959495209921,0.780782735392815,0.7263064941023614,0.6372892577559441,0.5521582023029104,0.5131746948543792,0.5725283445071887,0.6173017058850392,0.6729749475324671,0.7182916053427264,0.7247595960209892,0.7154530038149116,0.6921017426299128,0.7249509177309936,0.8445547434901113,0.9417700040476462,0.9999999999999996,0.8994309793454991,0.752201311191826,0.598726207086711,0.4452912799085089,0.3717752257665832,0.49508296507582816,0.6229339446479973,0.715742374675973,0.7657370078647996,0.7748438989811901,0.7805864126439892,0.7663536276218816,0.6730067205643802,0.6271054587733293,0.6820415161519011,0.6944794954015205,0.6124328322247856,0.49949601749572237,0.35243758315162577,0.18526211057005737,0.06140931446970699,0.049584236425793016,0.13216008583708216,0.2941241098758791,0.45055638607266735,0.4818385101745246,0.3495007782303978,0.18257572971843494,0.06329889241932474,0.045887248684038706,0.11414789257560498,0.2716731573560103,0.43376293961098167,0.5348392448207258,0.6442727775548449,0.6857086955318157,0.6752979151051846,0.6818930035014019,0.6406594115507738,0.5348961470614539,0.391354330672411,0.2401187327179093,0.09389809860111065,0.0,0.06204218941171158,0.2062273932255967,0.36255079825976555,0.5168964421999296,0.6742416130785664,0.7990007301957216,0.7295701023868122,0.6219845487012043,0.5876804471468788,0.6150236472484214,0.6228167435220029,0.6384774851316162,0.5840825784904928,0.5216756451706943,0.4565681615384505,0.4200466481005769,0.453468805945771,0.5343087843595353,0.6226781434416488,0.6883709341184079,0.7109598466503484,0.7114892514404114,0.6655643256884063,0.6368025659791097,0.5941645440296148,0.5671050858486573,0.5840014574787298,0.6123972814977559,0.6312294144271431,0.5976773598488703,0.5446538439493405,0.5364647335284478,0.6175588395823426,0.6667507311466854,0.6972830676112145,0.6816597482250786,0.6215439014883546,0.49314291539655875,0.35019820960343706,0.19614456055618978,0.05845559354148033,0.04504366564703455,0.17245037269464092,0.3187650505182047,0.4706594912478441,0.6264901288018145,0.7596374686234744,0.741974701897743,0.6292395213748301,0.5931359338728499,0.6071760067605658,0.6043408525744565,0.5671360930586373,0.5065007211674373,0.43077225791832463,0.35885001023598084,0.34132594583872544,0.4063134251028915,0.4974146991720896,0.5854280828736234,0.6411485892721012,0.6418535442363464,0.6353158688269089,0.6343254114146029,0.5998397533512123,0.6062397698014501,0.619679080707106,0.6366067822275165,0.6451901072536637,0.6465580107441604,0.6175191830084219,0.5505550411776681,0.5462248419897482,0.606960323315985,0.6847923700388754,0.6911169388768656,0.7208235031713897,0.7158775853974455,0.6504410487385317,0.5023338794249415,0.3475864434287175,0.20397526714965686,0.10035697483674033,0.1530131691305443,0.295545950011721,0.44418397917148766,0.6011297341539925,0.752184162245864,0.869752630237755,0.7989336634040449,0.6764402623262415,0.6276830570456924,0.6461174928661317,0.6388907913840964,0.6177164562483424,0.5921667779050206,0.5277672798699018,0.4448321964348918,0.3739245745533428,0.3581134227547138,0.41376930023087155,0.5064004251162797,0.5941330608304303,0.6327701898650546,0.6494854556151206,0.6515403402148672,0.6253513065256491,0.6095274309996426,0.6267072981465298,0.6535694579550424,0.6715434922652785,PM
0.38228204441385016,0.32797561800074226,0.30290718893050905,0.3302385887829351,0.369733986050395,0.3973368595081437,0.40929779600082683,0.4208909094403601,0.4011677034236947,0.4116855923091316,0.4920221899167416,0.5827845218483312,0.6754636016590496,0.7771288526633222,0.8716739999389447,0.9633725141702929,0.9832031049811876,0.9078894430340025,0.8159547553871753,0.7225656461969503,0.6294308566887719,0.5294112039116936,0.44733848232896123,0.4041459457744947,0.39057854226747435,0.3973331806255491,0.3909025215469686,0.34250813463537333,0.3608814034547503,0.36389694891451163,0.3577712063502305,0.34622623928651897,0.3574399868904521,0.35375024588509585,0.34812038566196946,0.3176486602590243,0.27979448491955217,0.23957708301723257,0.246745429665004,0.288679505965723,0.3128364611008039,0.3211763726446042,0.33260201832110803,0.34352444488815936,0.35653674205999564,0.4178988344508878,0.5030154966725153,0.591060869812458,0.6724927691452536,0.7632914966547897,0.8613427871335848,0.9212046356927395,0.8646848250545374,0.7794478041461941,0.7021610975106134,0.6130610804042582,0.5188544713487369,0.4308491036452027,0.365716121085385,0.3508136836647442,0.34292929787510373,0.33663135412352774,0.287361903691967,0.2956530661476331,0.32371253434658676,0.3210935680515863,0.3438033767461748,0.3509760100224375,0.34170839418867094,0.35012173104177724,0.343101821383631,0.37174414374263054,0.34828047097871084,0.3305062692273062,0.35787044216104325,0.3946679477185542,0.4266318537048137,0.4142894204337362,0.4107030810758385,0.40578401386459384,0.4293653294304083,0.5044991297673145,0.5959826819553224,0.6902053440738085,0.7887049945630549,0.8890715304208581,0.9600718227667173,0.9293701786168527,0.8327556273011381,0.7340003558805275,0.6410520828071584,0.5505367132486032,0.4655742460936285,0.4101282238958184,0.4072619048543642,0.41650622037296725,0.38717571743628976,0.3806714473895314,0.4142124559138314,0.42145417781741545,0.4223840733131452,0.4130046469292059,0.4314572941339778,0.4163217365177758,0.4045769066178624,0.3710664792368419,0.3511822905365485,0.3036072707797348,0.2732471979809914,0.2899462725494393,0.3192380176405465,0.3453567143528462,0.3540866886164393,0.3697644156581623,0.3813530409700372,0.44491454427257593,0.536713229300964,0.6385209628551849,0.7320921597648076,0.832213198629858,0.9322462605337585,1.0000000000000002,0.9657557001241763,0.872800396250965,0.7798413767045627,0.6863674344116342,0.5907624412695818,0.4988295977881927,0.4155574746352648,0.37621047158255405,0.3710101776905159,0.39040417486120416,0.35313588793044404,0.33293007604424196,0.2989167207971224,0.24227831060699567,0.16263519343078348,0.06163071777637463,0.0,0.017372054682669447,0.1052784126588866,0.20405222653280464,0.27422378467861797,0.2963463964395163,0.28251965186704386,0.29688407346533796,0.30298257764737957,0.36889036737408465,0.4503868084701492,0.5395245757181011,0.6010845192228846,0.5339062813395088,0.4477382963571046,0.36044710050987905,0.29890875534096906,0.3091651955813879,0.2910200810234691,0.28834203125945224,0.26682972850793374,0.2497377555644682,0.21249138973853676,0.18940926507116118,0.19952862284595319,0.24845843138960055,0.3065759533644601,0.3261825746306404,0.3396791564140915,0.33816383985498555,0.34626748573987265,0.35641883103962235,0.3521712607208054,0.31588250804845086,0.2975231637819997,0.3116370666762285,0.33785997698149495,0.34351689370923055,0.36421043721572244,0.43305550516479063,0.5251039887339053,0.6101691802638312,0.6031051935772893,0.5135530719508188,0.4287293834201924,0.35252760213037804,0.3417905981506528,0.3594269527906271,0.34961559120724206,0.35471578656768243,0.34271846229779723,0.3043887915469268,0.2703878534551307,0.2765040498920339,0.28375189963074443,0.28209103685623815,0.2937308341927076,0.29339284886890504,0.29245887875812016,0.2756475640458602,0.25333109152990896,0.26636290390505324,0.23120895091449722,0.23320159616154812,0.27119071820714447,0.27628822830136746,0.2844934904252956,0.2845429021688475,0.34496672882272184,0.42496402031451663,0.5136181605870538,0.6032414818133491,0.6073706089039812,0.5266181938742676,0.4481586795453676,0.3563283799592336,0.29978368596137295,0.2833773377668709,0.2646310503508402,0.2620592548372873,0.2609510334562428,0.2348843303997803,0.18466786030874993,0.17046748505447762,0.21112628448138815,0.25396307459407574,0.2871950283376139,0.28625445255602,0.29180482029712995,0.29930879273187716,0.28903528761910846,0.2973876282789647,0.27788212577317517,0.24969951291164239,0.26207925020416956,0.31828914660436225,0.3240753207580662,0.33244140739975747,0.3370380057865019,0.38902150591910645,0.47001912164301296,0.5546249450579885,0.6137975155470083,0.5530453364540413,0.4643225854859969,0.3771096534516103,0.33319495059317794,0.3508961143054188,0.3346840702572147,0.3381882431491532,0.3281352263832804,0.31790530045215193,0.2925825421361885,0.2389888889562004,0.23145459619828634,0.26909511394155294,0.31859459646318933,PM
0.14834831074429777,0.1833289840029706,0.1899629400883227,0.19897748091958034,0.19912950790054285,0.20391470448350546,0.20064652635379288,0.17775047229506424,0.14129974464071093,0.13000659863859143,0.15933549033787542,0.17989996567908118,0.1875435013309854,0.19067819381928364,0.19473593243619125,0.2376331885879197,0.3073581444043971,0.3808442622389634,0.45743716509903054,0.5355589987828107,0.6116933663580932,0.6908187621842388,0.7662175854997144,0.846463578488911,0.9239220574592597,0.9498012507040188,0.8905524910289886,0.8158732866002638,0.7388844218100044,0.6631252310547544,0.5877715869123157,0.5092104826317554,0.43358431888981097,0.354629343430374,0.2738415774216023,0.19689792343299084,0.11977405271296293,0.06431944130603551,0.10774660168733008,0.17320931114585525,0.20277513889651533,0.20179425172546073,0.16850972273838583,0.15471802767758103,0.1868361635449476,0.19654851877358204,0.1962702286990461,0.2081684799638137,0.21645583576219063,0.21543710767396274,0.20543801778304127,0.17022655060612069,0.12921230995693667,0.1266327502299116,0.1593421366693828,0.17994838222953513,0.17903964429570962,0.17054639391150417,0.19482384892439653,0.2560726974454335,0.32919234600869185,0.4049003283156509,0.48005805968259696,0.5595178679238109,0.6350681340403856,0.7141693380190104,0.7942325535379624,0.8695324192030485,0.9472752191523957,0.9893041730984193,0.9423464484732138,0.8669075299036524,0.791377571115677,0.7127719558822081,0.6372287687870004,0.5581367758244831,0.4828195771061832,0.40332668756198253,0.3278767530825737,0.24883256036220036,0.1728181544075884,0.11200677427525418,0.13673855652359412,0.18190366221349574,0.20103294329818433,0.19143983966741773,0.15845790439505603,0.17272566310640713,0.19027747902191638,0.1949617672810544,0.20497190789235353,0.20698999439172439,0.20066312964718747,0.19409185644251603,0.16981843839849042,0.13719771756705224,0.1506914924580578,0.17460077748173952,0.18231317785008683,0.18150923227787796,0.20354764722468932,0.26303786708384935,0.3346754019753222,0.41071696405321445,0.48678450726050837,0.5659398788346612,0.6413190476167123,0.7215354315959124,0.8003460247765557,0.8742283458815041,0.9408223139291114,1.0,0.9797177416298077,0.9055780544171939,0.8302860643415682,0.751079581176004,0.6757988044305365,0.5966331343612619,0.5212166563087195,0.4435549473920546,0.368106307927061,0.28834643821511685,0.2128726587627594,0.1411689139731489,0.1433505159809212,0.19176411836070573,0.20085644557351134,0.18147026565885782,0.15457163893714188,0.17945518934723714,0.20823761267499075,0.19943620916475657,0.20657228251538373,0.22591851921695993,0.2120637336117679,0.19186197489643875,0.1671998646962316,0.16522395608280216,0.17200989824033197,0.15977509693393044,0.16331455926752558,0.13929545990997094,0.10658043667231532,0.13287530521810353,0.16117483256570697,0.1536374343035698,0.099620935115174,0.04289879868763724,0.06648190759584982,0.13237260507182325,0.20676706372145515,0.2853446760838221,0.3628530228804443,0.43961760163925434,0.5176863431086947,0.593878345483418,0.6745151161711673,0.7450496124237884,0.727864298861058,0.6507229901242833,0.5726135192525275,0.49635906128094254,0.4178272761287878,0.3423766667884478,0.26825962644658063,0.20609429585248007,0.1596075742556653,0.14354886576414483,0.1469218166793207,0.12896570761894255,0.09508061288286696,0.08668647624879755,0.11726933616967905,0.14853277537061338,0.14125305782943065,0.15081746775464766,0.16026851992212565,0.15721772508734078,0.15522824949786473,0.12476525267085581,0.10944248924348732,0.14147506635465312,0.16199171136263346,0.14263733467134143,0.09188367279097576,0.022255477314820027,0.0,0.05894471473957541,0.12726634307260043,0.20221883925463846,0.28099415900244495,0.3565470424721655,0.43667217470825626,0.5127921286135328,0.5906624810372905,0.6580897808816113,0.6418218715642685,0.5687072358897536,0.49033374852029943,0.4132519112962394,0.33737451608711355,0.2638092893802626,0.19687581677633692,0.14900664006258935,0.12600627416398646,0.13097572623032305,0.1352850825754104,0.11909811813337878,0.08589983794479283,0.07665489025773264,0.11477644055444869,0.15419413990963982,0.17072376683404777,0.16916613102775924,0.1598157002197076,0.1605184247364364,0.15083603386401445,0.11721080691080887,0.12662292928583718,0.15998431430557658,0.1520379322232961,0.12630486482227954,0.05927123348428376,0.007653437895806858,0.03648236438179686,0.11083370120138847,0.18607658388762727,0.2658827487229454,0.34533485450962953,0.4207136623877721,0.5008205210637695,0.5778894228083604,0.6546236074554865,0.7067097426426097,0.6620494857186445,0.5848647385224184,0.5076982500776865,0.4306002293200075,0.3500953717366657,0.2747081820042203,0.20681706781505937,0.1635835431401489,0.15326789712582545,0.14668255392331875,0.12526268790835937,0.10171313423611883,0.09083694150528276,0.12340587162492533,0.16043232093744875,0.16879404198453551,0.1674288146815801,0.1526887994345565,0.15494908214211822,0.13948752317098312,0.1058077167291116,PM
0.12023920596675852,0.12838239240782423,0.16165989618892462,0.25575594294362736,0.3583335166438748,0.4742581411544422,0.6001389624021063,0.7204429215703265,0.8513179752766331,0.9315469169922195,0.8774492758820931,0.7650663239952409,0.6395766539214764,0.5081971825087819,0.3841356982822277,0.26356191625134295,0.21371508563001163,0.2095431728997661,0.21391925891331587,0.2701111425597067,0.24566657584243368,0.20114229029731723,0.23430662597687446,0.28157126439142255,0.3236269380705594,0.34951172474115966,0.332885845589439,0.32224215277604484,0.31613189119640817,0.32646762983770783,0.3096666022494614,0.30714678246820926,0.29668572972817,0.27761521008331735,0.2740423302385486,0.2691848870358835,0.28167202905909106,0.30032656353613385,0.3502234811834346,0.4100624029426885,0.4085911822850936,0.36047277223881613,0.2700129919191645,0.17596431234833032,0.11432800238140439,0.14053444196289933,0.18899922834407112,0.21870069327994957,0.2281416818792965,0.21857218301642467,0.2074772994581502,0.21625358019966034,0.21269468298033667,0.23242222332377382,0.279076563675257,0.36945069156868326,0.453122398402217,0.561117915888603,0.6677939287776966,0.8043248590547161,0.927102011757126,0.9999999999999996,0.9347708544334457,0.8183226699289308,0.6849456611497806,0.5644644848563387,0.444609259814849,0.3333042307512506,0.3012196063268866,0.29180347792834427,0.2722500169963875,0.2566639621062632,0.19712234694458663,0.19547796070868317,0.23450432960549028,0.25519832642732654,0.25649902327265517,0.2564993847445938,0.25648183059471696,0.251676127114727,0.2521300038558487,0.26284313850495034,0.23391300319670316,0.2370667855744828,0.2537378196950706,0.24487501173584247,0.24715072039262465,0.24442168595781721,0.28339956805051925,0.33373735557346285,0.36525977115786956,0.3671293145234489,0.2930266458616049,0.19897740358441274,0.11113495928468575,0.10110948979190804,0.1448121509770277,0.1806451104350919,0.2016800326884618,0.20398682317736538,0.18071817113741906,0.17461236483064413,0.18046012216680962,0.19219157111120078,0.2302679306952382,0.316454180991514,0.40694166676742194,0.4913677397285485,0.576962479448706,0.6953692295457006,0.8307634876866872,0.9294645302745894,0.9292486034122152,0.8146490374271589,0.6884503822970935,0.5648931246642834,0.4506775652726911,0.3386605281923205,0.2847680615325543,0.2756401174819909,0.26900536949696496,0.21624814513847168,0.1623000286668037,0.1750045919191776,0.23145110431490723,0.2557033452685338,0.255778351189456,0.24681384936721384,0.25577843927925636,0.2564993027299516,0.2564993847445938,0.25635863854799856,0.24231790725738334,0.1904770459099132,0.17787970151525334,0.1774088944632637,0.17342908524857714,0.191994071577422,0.17804763303007265,0.17025113800338376,0.16989858714801231,0.1504919761832748,0.10368323816084013,0.07584368332757974,0.09316819819047817,0.15340587080269907,0.1828841235155454,0.20768842698089474,0.2103671154293747,0.2737969108662992,0.38205147511881377,0.49358600200929326,0.49011358257113313,0.39973475642724976,0.31125322724682336,0.22109876654114347,0.14784663559951516,0.10811940632247863,0.09715031521781947,0.0940489875760302,0.09470060941841973,0.11081937437028566,0.1165425917352354,0.10968235658600944,0.08710477052445986,0.03672994481997316,0.0,0.024903221630676153,0.09847777066855423,0.1964874958790639,0.28087527320873695,0.26861247613186157,0.22047341017564692,0.17708357711933553,0.1604370478562971,0.15165535860313506,0.16905145342866978,0.16959521008144351,0.15506644898357758,0.1653294693339693,0.17028668853849505,0.17921737858557352,0.17591596143851396,0.17454992863530316,0.19242495007977967,0.1753397853192964,0.14555715113514323,0.10507243182266501,0.07905177855215628,0.1252463059610167,0.17742185354303297,0.1868854596091567,0.2161704333746477,0.20810670800074993,0.26086135487809203,0.36923860706640044,0.48008789561644116,0.5701559554403706,0.6846479328251456,0.7234054364646219,0.6029734314586555,0.4826350607316203,0.37691168739704795,0.29164462853806095,0.2060056158570709,0.16243134890849076,0.14537808326857649,0.13829089480299794,0.12050786703512495,0.12250449399812746,0.14182662657779188,0.13503899620172666,0.08981248620909765,0.04378562564285682,0.024406861815116532,0.06428976050812318,0.15132731448527403,0.24714113973434726,0.3231163754580044,0.2980233721148271,0.24839738149118462,0.20751803202536356,0.20030336179700248,0.18504579814384625,0.1923196402438312,0.18227395264516,0.20585268416492086,0.220617977079677,0.22585752199633147,0.24342769662616393,0.23615548815442944,0.2458841489784036,0.24634586993169227,0.24511314372015347,0.21279280318618854,0.16563459456990737,0.12646998318557978,0.13802980573459633,0.1686740364828947,0.10305405368903076,0.08565180181777654,0.11674338549945373,0.14602581837324236,0.22798907378434352,0.34046171680869675,0.4527584441180683,0.5761338020340552,0.5588830669289959,0.45466034693359125,0.34266334297545464,0.22772415765202458,0.12189268817117282,0.05995716835057996,0.037950302289460947,0.03292990443295052,PM
0.8018372915477925,0.834030343799042,0.8240151915822911,0.8217179927476415,0.816923645672055,0.8322549002234072,0.8473258681952665,0.8253417151440203,0.7862369958580979,0.7235488368529737,0.6726039201582923,0.6946915953025763,0.7647620803818431,0.8342716224409834,0.8919590415120031,0.9455884942683586,0.9785738028220443,0.9844154986515852,0.9517243665372601,0.8969541328562252,0.8109886911176836,0.7168644430909592,0.6178776059539697,0.517439432603156,0.45403825534527176,0.5306878452910806,0.6330515714517704,0.7440304796514168,0.8434624213169091,0.9252427527731752,0.9314455639390538,0.9049751147110316,0.8800509638370171,0.840263947659786,0.7915173231839789,0.7953073084081717,0.8332492737632284,0.8589856006909526,0.8489632797884235,0.8305122292651057,0.8235162245433139,0.8307582879105726,0.8511290046642568,0.8362756306142041,0.7892783651542672,0.7301907436842665,0.6707884088736957,0.6684811029506648,0.7257610843778348,0.7965544787928103,0.8711172893061092,0.9264690378593659,0.963910707720752,0.9846136059303761,0.9685552134931266,0.9210973667304181,0.8456800324837257,0.7597688902833655,0.6647481844908625,0.5830148457622686,0.6290745812097862,0.7324038772127763,0.8402110664650606,0.9215362452104756,0.9425786710899664,0.9229941971322888,0.9010831167194495,0.8560612696126717,0.8253538193992216,0.8383435291253543,0.8802517345568281,0.8916300438506974,0.8825073104357339,0.8699186764858604,0.8583480124161378,0.8654502584782127,0.8733056765282172,0.8678316278030032,0.8313644190308085,0.7721733915729501,0.711063323769356,0.6894280851246579,0.7438925840471002,0.8133110791673861,0.8814533522130361,0.9457156773805133,0.979228429548118,1.0,0.9954636853671515,0.9497208020798187,0.8718559667780394,0.7847204517219737,0.6916358519555148,0.5939656936332209,0.58149345170709,0.6798184443443755,0.7840898885819847,0.8828037390262318,0.9419623992656958,0.9296913200883585,0.9070164414192914,0.8744618032936007,0.8313452833483277,0.8070083927192404,0.8344630498814749,0.8655903208829612,0.8600029945029699,0.845767545835844,0.8301471318910276,0.8288349523023792,0.8335102074695038,0.8170385292527227,0.7742214548990294,0.7108773133823783,0.647171099813292,0.5723270354160386,0.46246558976056873,0.38438038652643414,0.38496944953972845,0.45634961958837916,0.5677942695512401,0.6576630396966299,0.7123033382687964,0.7601987253730229,0.7741857277697699,0.7683102638209864,0.775051222612881,0.7877901110183649,0.7957066299042133,0.7848542435958215,0.7472920241908532,0.7353840446884194,0.7677019073413556,0.8176490743663614,0.8577645725714742,0.8753947137911187,0.8589491169148928,0.7645954657043497,0.6563670009431655,0.5533404853679862,0.4404165685731649,0.33234545313142494,0.22858612771007536,0.12567071890411707,0.1065923634584871,0.19549987738234087,0.2968682366715574,0.40607438440480736,0.5078050260163463,0.6140404174262137,0.7116266328459031,0.802518808486052,0.8857292972877242,0.9404111210148343,0.9408527754265625,0.9097732720724401,0.8630363784318318,0.7933244070980603,0.7209498019125564,0.6588606532069985,0.6174841266931836,0.6354427109301564,0.6952383294069673,0.7582980745700936,0.8097992033043688,0.8140463266329396,0.8067418567101905,0.8081149119764137,0.8198531039623731,0.8229148527810994,0.8251867085170974,0.7882934326480773,0.7550785359213572,0.7573449692254717,0.800351577546869,0.8474612060166717,0.8688692133428448,0.8651032941885859,0.785555083173441,0.677129882498285,0.5674578885309174,0.4648814895818387,0.35221283742625875,0.24520605868657608,0.14226889485235894,0.08120448449844075,0.14340358715731671,0.23739313078757052,0.3243404036958255,0.4321356628295603,0.534532894071643,0.6354136349278083,0.7294401286028931,0.8173858705894159,0.8930890731665313,0.9231529726462524,0.9022205687922451,0.8714092437913767,0.8173082915070173,0.740261659644776,0.6703442635952288,0.6105981059807637,0.5860711531907907,0.6242798360585771,0.68247409983179,0.7454949632027166,0.7858307514081377,0.781364948326916,0.7712976605555006,0.7689770972832966,0.782087077688419,0.7898976358260632,0.7720706093797869,0.7357817679542689,0.727018305847166,0.7651043824561898,0.8144512533779169,0.8497202811767521,0.8534492309164956,0.7860477394081831,0.6851803373882226,0.5731855544204114,0.466248414277878,0.36139605498123606,0.24812286931698457,0.14034080229051105,0.04100460960676422,0.0,0.07265551351679345,0.1822126432258533,0.2846435455971168,0.39445318265512563,0.5009965214390371,0.6061314712462385,0.7134490403095706,0.805913173106501,0.8743749141543984,0.9163326745478244,0.9136268495874273,0.894804763621559,0.8462356210739368,0.7869004191987448,0.7194947125828484,0.6469374925429667,0.6059316562197314,0.6320555268575045,0.6927474621625129,0.745866006165889,0.7726818342562898,0.7697830663971255,0.7494055214409578,0.7563770832410448,0.7622367766836122,0.7632415873900951,0.7412627044992024,PM
0.7578777276965567,0.807045711774842,0.8265581567862361,0.8221124513522693,0.8146376645766298,0.7989073078753626,0.7796068781394025,0.7631498343763792,0.7604529407421878,0.748681045456234,0.7605277605696823,0.758882163932278,0.7095476416062965,0.6662735606006007,0.6688601911168732,0.7247396192122435,0.7420968904037915,0.7332496548682526,0.7537434664406486,0.7450168624535347,0.7368787195490751,0.7530580500248651,0.717996719686999,0.6988277353302557,0.6236971612709865,0.5338807647426236,0.444132524805094,0.3448615511707176,0.2466190464503082,0.23883948157201762,0.34022122986856407,0.4401935210692083,0.5397298965565647,0.6298598570245468,0.7226790034019086,0.7882456261224939,0.828296851240913,0.8005980372456578,0.7499412899871041,0.7373828358724344,0.7789765547000063,0.8237956572820992,0.8369202959795221,0.8415491324468951,0.8440026991403171,0.8524828892524543,0.850354616599519,0.8406860883058227,0.8602808125540047,0.8522986796651113,0.8276543810176127,0.8208032766797289,0.8154694316823832,0.7922262406897842,0.8277950658252939,0.8581727828630725,0.8666783229742412,0.8817560090608734,0.8890957600914813,0.9093790672073665,0.9551637244489213,0.9525082600890304,0.8998623618158847,0.8482138471140337,0.7704649106277988,0.6819138522622576,0.5845112525232363,0.4788956061569578,0.37629039306778833,0.3902091192350381,0.49491207837043105,0.593912263830499,0.6907540481913232,0.7834524347422318,0.8726306428081181,0.9471326680722962,0.9973195657928151,0.9804703853062133,0.9285084954100105,0.8887697117068394,0.9177071229821709,0.9584252356707783,0.9722173803333256,1.0000000000000002,0.9870600067541735,0.9643902375894806,0.9563421933639857,0.9328346259182012,0.9203373316590884,0.9085741632561193,0.886255419999258,0.854087658702473,0.824287075661619,0.8511884281368849,0.8783773322729405,0.8857614963142273,0.894237240627185,0.8971086405210176,0.8926395729633898,0.863517406091759,0.8156491652229703,0.7540950548383367,0.6650155273677629,0.565093572697011,0.4639626009265607,0.3625943318492275,0.26676953187220565,0.2788311860109969,0.38300003459022425,0.4828908711107187,0.5895106914225103,0.6825889116891333,0.7716251066389328,0.8577619195717234,0.8998039328820429,0.8726788058519646,0.8120799368048657,0.7820203845722273,0.806320235655918,0.8450642670451407,0.8296615424503824,0.8065419285779274,0.791563288689723,0.7476954154472806,0.7285085782137461,0.7462775608586554,0.7449953921967116,0.7658716290086793,0.7448054135035116,0.7091390493315524,0.6952565621181466,0.7404944142181524,0.792067819391814,0.8218085967262903,0.7500549626204822,0.6583866509395373,0.5629894030664591,0.4584769651750402,0.35831969649309436,0.2503293477710773,0.14701264217899102,0.046244664644371936,0.0,0.05969657608608281,0.15727897160177284,0.26800424384443056,0.37444406566729715,0.4750878185189513,0.5742840978107833,0.6673078695045034,0.7469545710549059,0.7962241303148312,0.8101363020802508,0.8209453559061621,0.8265103532997669,0.8140585357868442,0.8023153611498783,0.7523401495388209,0.7473966292282361,0.7888407770186914,0.8269195834838776,0.8352736209307501,0.8492263417687551,0.8642313205866812,0.8854607839624389,0.8942347654079648,0.9009001337118672,0.9099927452872072,0.9024129446185734,0.8840563327421973,0.8558531408806369,0.8132312273401034,0.7944699378062141,0.8448750946565131,0.9022622778899432,0.9328876973937581,0.8754103870517762,0.7927873252465656,0.7006705530488382,0.608235376863804,0.5056702657854368,0.40424902126277185,0.29630491170279627,0.20196745444255293,0.1752349514066449,0.2511795589032386,0.34906565829440495,0.4491283281584819,0.5514492572539795,0.6522446153122681,0.7422473185771652,0.8131972721035503,0.8438614942483647,0.8353496337288242,0.8139559616270049,0.8184405452589105,0.7936523552889632,0.7750253074806437,0.7328350613693815,0.7131924965210159,0.7199936087598251,0.7413631625693589,0.7520654869734262,0.7592046718784997,0.7606637071066797,0.775462161991314,0.7819048074442854,0.7836931034069183,0.7670955573728071,0.7674983801304045,0.7594880453751249,0.7382492457448511,0.720148970449052,0.6615754156274358,0.6368416085951647,0.6692503929650966,0.7140795110842271,0.7061685797254083,0.6271750857441123,0.537845878755596,0.4491329863214941,0.34025763314604185,0.22956244588929509,0.12853301110381055,0.0355365311999114,0.023720977546686894,0.10519005051432417,0.20228054934704276,0.3040357211794473,0.4042423306590075,0.5013777767263414,0.5921596044014283,0.634457804663642,0.6505206285782055,0.6420334818423832,0.6356013902595994,0.6427155598207708,0.6462585671021845,0.6546839309658885,0.6488047500785215,0.6028655312168765,0.5856188908384239,0.6201034192486994,0.6401922908409496,0.6671661907085753,0.6722064010036888,0.6899653767273295,0.6897453189572784,0.6945798929324372,0.6888006360412755,0.7212903288755539,0.7259741646736819,0.7404202195007186,0.714425384413498,0.66650863553704,PM
0.8917652040504342,0.8708956407937309,0.8774215608348199,0.8646015707775914,0.8265191000596643,0.7315720219032866,0.6315052619749277,0.5219794039678196,0.4115498627571319,0.33445513902242663,0.4125483231221483,0.5236519417437138,0.626310625392255,0.7078722328026266,0.7943432113643669,0.853308242406499,0.8851604384889327,0.8961736281016295,0.9213470627333384,0.9102855886431094,0.8660589111562231,0.7880384823823245,0.6813940267564811,0.5542134440953936,0.4426203177818513,0.4872127547738936,0.6303248801613117,0.766397421174112,0.8861276482096776,0.9508214176976995,0.9572187312522145,0.9373282248046686,0.9431197799690985,0.9670540131993413,0.9667882615082641,0.9463681076981558,0.9242088841407559,0.9186527577698076,0.9250513827426508,0.9023192733764218,0.893713369408426,0.9194695591838649,0.931297497531145,0.9344919587570675,0.9229218445866398,0.8760361991337304,0.7920096576353304,0.6909864688146397,0.5759985133738383,0.4683812535183862,0.42340115223760666,0.5086940557763704,0.6037295202327337,0.6914325344695449,0.7672558089349066,0.8299533037372209,0.87803351091797,0.9239096849867314,0.9467348839672254,0.960714788390113,0.9250660165164089,0.8599237883049189,0.7693734247702535,0.6587777727461877,0.5318703184942852,0.4348946704763068,0.5064307659951468,0.6194781771776596,0.7565364158354337,0.8843712818163523,0.9817082455781976,0.9908941155065834,0.9505447584695275,0.9201168646122739,0.9348207464446148,0.9919897274808096,1.0,0.9692432826577768,0.9368819890453972,0.8986737002442164,0.8623637636591357,0.8370580548158908,0.8389415934920073,0.8593185014465154,0.849537849882227,0.8055680985730111,0.7823183426369704,0.7830360400930756,0.7409322644837637,0.6485306429001896,0.5440972923988707,0.43514347361058237,0.35658805936195703,0.4096468478347153,0.5198222398547192,0.6255721204334126,0.7267905069588636,0.8225458897321807,0.8899630012792912,0.8956827045367377,0.9175527577541791,0.9251911287024823,0.9222618225051749,0.9078630999780604,0.8411527015056111,0.7491095968431112,0.637164546058997,0.5153149101874996,0.3898367186024103,0.3051565682942927,0.39439833834834737,0.5380026616325297,0.6749156304073454,0.8015986746981567,0.8863410939310836,0.9400723580757555,0.9632677849779672,0.949173473161085,0.9227025338659343,0.9311109757849718,0.9081824330906079,0.8732266127057415,0.8498786014336854,0.7835499402974748,0.755272197926848,0.7897069746420082,0.8247879576627684,0.849660813657831,0.829095699458561,0.8478989021127066,0.8657087081409407,0.8396153047831341,0.7808795489537328,0.6665760204205204,0.5153308854626588,0.36942937906894135,0.2322576898723101,0.0955421267684966,0.0,0.04950562708555051,0.173903320523908,0.30767136985012966,0.4382361988792569,0.5634377276417513,0.6883535496422053,0.7679769406900792,0.8144003966173239,0.8315022026572136,0.8086308703233351,0.7891454878779114,0.7340116429044072,0.6426569506831301,0.542943029706954,0.4439862874037823,0.33757470449775484,0.24540685514756833,0.2402671250879731,0.31973161098879777,0.43033349763537476,0.5446914951224331,0.6487953041091719,0.696198570518852,0.703578954054835,0.7357275329784168,0.7701443926899056,0.7697410174906443,0.7357853209787066,0.7501413881946428,0.7761184373686243,0.81154878279877,0.8494300493846225,0.8891883091866104,0.9074232952374577,0.8640982930538663,0.8262686581020491,0.8610944389234061,0.8917031764465069,0.8693808907732126,0.7710416953632988,0.6373367542421922,0.5015380463987147,0.35051834455543895,0.19828859573834334,0.06943547564481012,0.06538335326864786,0.1791170693090396,0.30979445832796015,0.44212680088739376,0.5729483788219731,0.694953226269416,0.7959497170179555,0.8490231330645543,0.8553233843864847,0.8330591428459142,0.7840551396774553,0.7343772775895023,0.6687376294875977,0.5856059937608746,0.49582300299173454,0.4012470291768726,0.32330769496938894,0.3306158888606099,0.42253611024066773,0.5285150057904224,0.6490500947909288,0.7575374431346003,0.8307924683250691,0.8486997584814127,0.8398537766080207,0.8451875523688326,0.8203393956027338,0.8131555863402373,0.822318246664866,0.8351296726018216,0.8412976115015054,0.8702193128631794,0.8794140682734333,0.8588837336662403,0.8403560458084285,0.8605998429236417,0.8619647138883866,0.7854121213508378,0.6838094185760544,0.587230563568617,0.4580627648694664,0.31692915886778383,0.17529574249665636,0.03334737833224111,0.011214083368128236,0.1214541725813656,0.2629683576708053,0.3968703353066205,0.5257142302810109,0.6504207513214291,0.7557727760686377,0.8181352295683233,0.8248820543518454,0.8089119786510248,0.8019690671605728,0.7829029786877091,0.7274021145030254,0.6424559532686596,0.5556262204228064,0.44943016373701017,0.34803705076892655,0.26682726753813313,0.27877648124754373,0.38265393955797045,0.49038367428390917,0.6043635985453126,0.7125377379470024,0.7679960314269434,0.7801083939315241,0.7830923993967747,0.8004133297636824,PM
0.8772584213283317,0.8192990457009461,0.8014638095127955,0.8509200944497795,0.881957754287269,0.8669680440952532,0.8581695776257439,0.8768846096325893,0.888391395572222,0.8886361533998577,0.8822012136499615,0.8242347125034155,0.7386875672684781,0.634847028348235,0.5409634983912848,0.5552464764148506,0.6417484571991898,0.7354921062350326,0.8297616584073246,0.907805349179299,0.953813296209495,0.9774026264981392,0.997267062241157,1.0,0.9491846494618223,0.8718336435271521,0.7574154438231959,0.631462391869333,0.5090828298066068,0.5479784102621101,0.6885815588027575,0.8164148694332054,0.9198486654682134,0.9710748279345465,0.9647971196265206,0.909295585959617,0.8351279461143091,0.8117128799572986,0.8615721393390032,0.8977250692387018,0.8851933404999879,0.8781261577066455,0.8861946744138463,0.9016248167140093,0.9100734696702717,0.9045590505622156,0.8684445963052823,0.8016769431968469,0.6977378736045448,0.5827941611768006,0.48358240511301265,0.47965825261277084,0.568832967106554,0.6763406470633546,0.7650377376704114,0.8391752677018327,0.9029396779453349,0.9407519966971813,0.9605110664421614,0.9675794144884451,0.9211436821126666,0.8458063517178243,0.7424972329320161,0.6206213546516737,0.5172472358979707,0.4297918049457885,0.5176200937547191,0.6527952003849995,0.7879892024877413,0.9035092920825281,0.9647996825715759,0.9659146960745262,0.9151978152072555,0.8531976410819979,0.8095799344462176,0.8413380918249214,0.8963471589894256,0.9027488959929952,0.8994314951632467,0.8967292987060769,0.9061686807052718,0.9186453614780783,0.9189991533370296,0.8995432494791524,0.8410767006963802,0.7528279935539843,0.650095663451915,0.5415529204204175,0.4851777988908297,0.5551086491280453,0.6509668947940295,0.7402549093805328,0.8223165674833215,0.8821812902064812,0.9194433447437551,0.9438953312357996,0.9474927128022217,0.9073748525938612,0.8330712550979795,0.726687954709055,0.6022288861664382,0.4764145313123307,0.4476596011696268,0.5759386996622267,0.7096577994324651,0.8348651020643669,0.9218343201418397,0.9507394580266975,0.9208935826245681,0.8468632770660345,0.7865636094111315,0.7872655850099948,0.8407795331374928,0.8673604999345601,0.8740956675192408,0.8612334955662342,0.8726600612386606,0.8994292808118232,0.9099846901032014,0.9022371499624726,0.8663241763416796,0.847136780417336,0.8427073194544255,0.8174519420374229,0.7958970775344123,0.7943142735390656,0.8014421718744273,0.7654700064311166,0.7123917348461055,0.7029851324912211,0.7501454078787959,0.8228864830118345,0.880591817732423,0.8566864407688879,0.75888183114006,0.6293156016498083,0.4915560075227945,0.356511886409034,0.21998786250266145,0.0880010236456954,0.0,0.05299504014886125,0.17817716219402557,0.3210418673413038,0.46143915003429514,0.5899027986422496,0.7095962197409151,0.8038049788237593,0.8682948057850433,0.8815765179151036,0.8667041279869308,0.8246810450427655,0.7661486464349423,0.6854095146746024,0.5855514994593962,0.4893053608750706,0.40385433596616016,0.3772261786403641,0.45118973956582,0.5559411389625035,0.6661299264300911,0.7640136946886371,0.8358521020698189,0.8578722472218838,0.8574920856918324,0.84266383090764,0.8369726735685044,0.8366047420094995,0.8145497049639032,0.7554583843614302,0.7385763058874342,0.7783118170257382,0.837217423324188,0.8892817217856486,0.8732035786283774,0.7785815599286856,0.645897450893695,0.5131374659022834,0.3731673490641887,0.24116029819856832,0.09892912425214861,0.038113733898700985,0.13089901160609152,0.2594024405469635,0.3889722595023275,0.5225905433585027,0.6484861911683226,0.767319579880426,0.8558741701882733,0.8934542994099353,0.8810204412759952,0.8575814724153168,0.7983423299897057,0.7236462919543443,0.6333379140548767,0.5354348169427827,0.43335401673958085,0.35778058725282413,0.37636045656523764,0.47441095383385923,0.5897699215688648,0.6950834767435206,0.78084522692708,0.8327376359235648,0.8539943354200101,0.8397808985113011,0.8198794030610697,0.805130070506578,0.8144246934035353,0.8279592259203121,0.7932800334015582,0.7363610921316974,0.7313166581797241,0.7785911028877801,0.8512370402239959,0.9048420292619834,0.8895327692858364,0.7862490863661953,0.656003785540463,0.5189156226626439,0.38318037234037305,0.24865937295220997,0.12233039875458207,0.06032341114937223,0.15000990632099143,0.2788321724993912,0.42291286837581366,0.567522303728559,0.6947987458272986,0.8083094534960584,0.8913923810657511,0.9306010893302985,0.9228815594861426,0.9030984356333471,0.8556546726613372,0.7810036079887257,0.6840490694130574,0.584671643065759,0.4960766524739122,0.41742055948554757,0.41791282626773985,0.5027667519460963,0.6026710794377994,0.7097435785899209,0.8005055300440889,0.8354846256817146,0.8364737988712241,0.8190806695715906,0.7954352681856265,0.8039513831818415,0.8134537381747546,0.7765932288628599,0.7261774713635836,0.7315429460700065,0.7800784044819391,PM
0.3134469418300332,0.3006931950689711,0.2685769379410663,0.2642510049563167,0.28422801401639575,0.2921950679992402,0.2829057868021081,0.2505858506163592,0.20347658605950714,0.15855442823629717,0.1696532850197312,0.2128777839243463,0.25315806538498564,0.27799805183684434,0.2840537231837974,0.2786326488059485,0.3349793378825203,0.41655848231211734,0.5038627299265692,0.5819151494651051,0.664930611443264,0.7545533478024904,0.8325074592479988,0.9023954265965233,0.9541627010604232,0.9122004603403404,0.8310896087485502,0.7470938731513095,0.6644881293571796,0.5771433568476318,0.490184433156029,0.41084937470327554,0.34569651263691825,0.3402331012213218,0.32192059801312345,0.2880934824570587,0.2688846527873505,0.2892732735825061,0.3044812984132177,0.29498526225336397,0.28449599212739396,0.24112673033033505,0.19560918490683665,0.1613206836311234,0.18172691339261404,0.2213862047002899,0.2516203502531338,0.2695961075940614,0.2636901713063946,0.2961546320387505,0.37686864894693506,0.45789005273828076,0.5332920522385871,0.6149507686186726,0.6972755873786798,0.7864036567055019,0.86651059901551,0.8856903188978773,0.812467265105342,0.7298319104413724,0.6444481072832264,0.5625000863071357,0.48025071095243343,0.4018427477360538,0.34276509565496927,0.33038918150342655,0.3122248811774575,0.28295970467205067,0.26006256832103913,0.26685676329215435,0.27526140941601773,0.28497435046118635,0.27163297599535086,0.23378010545113082,0.19392372181990658,0.17662322055651725,0.21148420016912084,0.25058114681180643,0.2771268141719656,0.28226325934080676,0.268923269848907,0.3220507524400609,0.40367959240309137,0.48297113753199516,0.5631165438242114,0.6481929666070676,0.7323454758601895,0.8207997966020959,0.8939792772715802,0.8902831030831382,0.8158282404564092,0.7344754349928455,0.6515016779629592,0.5696939576085271,0.48681956431011697,0.4056671572993764,0.34040036263249007,0.3246131412472515,0.31276430267121547,0.27758207197592233,0.27443255243698883,0.29787093222787786,0.30415952713468997,0.2951729162595773,0.2669681167817588,0.22246261851875304,0.17435368771933057,0.15952362874452808,0.19912475223551374,0.2416321471061058,0.2741168051338734,0.31085385769176055,0.340849032701001,0.3647538462757949,0.4324606321155309,0.5135611227325692,0.5943001305183291,0.6698027826548891,0.7568978189672659,0.8426219212955868,0.9265445039860105,1.0,0.9828160044738441,0.9050693694128698,0.8209590093060295,0.7384829632932166,0.6539762196149237,0.5734981028678257,0.49271002155338106,0.4124076938543684,0.3501555066734905,0.32858470834581976,0.3008109080614141,0.26079389038840595,0.23683594751993264,0.19448453131404886,0.11729600376102045,0.033202211526290215,0.0,0.03441210195203581,0.1179922835901277,0.1895354946812,0.22326680665904952,0.266441309807137,0.29767737630302915,0.31768229771000933,0.36991757618795806,0.44718370258974094,0.5277683390482091,0.6111536675227853,0.6929780910808914,0.7411102365972915,0.6797577349505355,0.5971901840888738,0.5136541299873714,0.43175536923774294,0.35756156491091895,0.3105868839494186,0.2874167601471138,0.25205639834982607,0.22132125337152475,0.17676345236301705,0.13594434153937351,0.12384348987891336,0.15687345554709964,0.20429775785648507,0.2453855942717209,0.26562316978205414,0.2631286635117023,0.24912549455258048,0.23104068204775263,0.24657881521896186,0.27956272133277493,0.2871676344687659,0.3051690207410964,0.3673242151527356,0.4458242451922567,0.527491176179383,0.5882781538201249,0.5417547273663983,0.46079061535722454,0.38228611931176304,0.300785192291007,0.22941697775368608,0.2075019764209738,0.2414540040862989,0.24062990685559926,0.21284911148030017,0.17082854825126947,0.13835105337825837,0.1477770119534938,0.18604899035894396,0.22704317100046922,0.2454696176319502,0.24199592664879832,0.22919134695541254,0.2083402674951782,0.23089094610593097,0.2670579541288638,0.2930204111902752,0.2964569258931098,0.32888819226062793,0.40349390932991747,0.48948412050062906,0.5598119745798504,0.5283150426940972,0.45591669689463865,0.37236555655349424,0.2916863165552077,0.22818161376435153,0.22004077482723372,0.23362112541684588,0.21691800982064247,0.18199795622406456,0.1407147341981354,0.11686798288324352,0.14208621725146164,0.19087466272818943,0.23686538571132698,0.25658744240758646,0.2659725246742337,0.25183050230409076,0.23233284737062476,0.24357628942200904,0.27710521796001797,0.2958990818159526,0.29426686396335056,0.3268061737032717,0.4037777132033611,0.48365122394556126,0.5647220598677958,0.6456910187036553,0.6967949317881543,0.6354649277378659,0.5516158003830092,0.476769394538755,0.3962827571206715,0.31488061574248416,0.24751921115343367,0.23781953740183814,0.24756866439562075,0.23200467902398114,0.20015728302947755,0.15660563588242282,0.12179807152320943,0.1211262119823644,0.1649861214234405,0.21281952747275912,0.24808002074869373,0.2566358609734738,0.2506528745030725,0.2249371449896891,0.22776782520098737,0.256985628587481,0.27607610884521905,PM
0.9999999999999998,0.9817572336640816,0.95291001238452,0.9359025578120501,0.9604636371367674,0.9869292474820675,0.9557153588579419,0.9310606748849948,0.9288656526327081,0.8916975540114447,0.8760252033992895,0.8936870134688271,0.8740830959562034,0.87116658387997,0.8759804851845983,0.8344830638490321,0.7640583680531716,0.680815484727386,0.602130971399119,0.5901196722378372,0.6636735361726627,0.7445085291595064,0.8188945064323347,0.8742470261180044,0.9193068727364377,0.9197054897089829,0.892423515945868,0.8381406610122004,0.7803687636027508,0.6867176024774351,0.5783070810300279,0.4662863128454544,0.3714425611546026,0.3849036262454917,0.48942988811721366,0.6048539317341424,0.7153959720769338,0.8291753423090753,0.9312428417991863,0.970364740556559,0.973048790205554,0.9554571692717644,0.9235450083279997,0.9137941793208968,0.9227193570909094,0.8898957735583302,0.8815611822985601,0.9209826997122088,0.9142079729359309,0.8510496369093887,0.7725530229326181,0.6948415596719697,0.6285867866624553,0.6554346397737099,0.7341641515734525,0.8074554054630234,0.871020739025471,0.9130510843016537,0.9060172207194446,0.9241494132073502,0.8897310341568943,0.8376076586383407,0.7803776911800633,0.6946013129919868,0.5771704360866765,0.45755597891508226,0.34788819977612495,0.2700502190227809,0.34767089475141133,0.4575046265724316,0.5749785766116589,0.6852362205069265,0.7979678542834427,0.8855782462388546,0.9651430080641827,0.9662558663986076,0.9510144122151136,0.9548689237307049,0.919873533812763,0.8871123535673562,0.9024687982204889,0.9232405360173661,0.9109743095716951,0.9032363358026154,0.9182640384560725,0.9418229405669212,0.9305679891937,0.891021820098495,0.8232326746877454,0.7403014591875945,0.6980269574420765,0.7458161140445443,0.8164730727238767,0.8833048083387907,0.9231905028978258,0.9298299279578852,0.944990742929462,0.9643184705203478,0.9227963668125134,0.8358229650996825,0.728985541609515,0.6170687429532211,0.5015675839464253,0.38921084704153386,0.2882800165488819,0.3283661818155663,0.44174533696185336,0.5542554901094146,0.6711212439965102,0.7815370269310591,0.8898035070557209,0.9646567332157912,0.9377086391465899,0.8868396312334077,0.8094774855823113,0.7483714632718261,0.7747545556124698,0.8245936487248768,0.8268418587799455,0.8416881304803525,0.8541288128511304,0.8120132247561658,0.8130741168959579,0.8499644687776893,0.8599251084111159,0.8336870266708549,0.8117452490003372,0.7969428989547109,0.7622374218254822,0.7655795043904916,0.7901452423444073,0.77870564469229,0.7801756389249179,0.7382928474896258,0.6838323735725507,0.7017207461940711,0.7730148278555402,0.8436190663895646,0.8354360294260961,0.7281823115498132,0.6135678199860284,0.5000878210036823,0.3860059535334004,0.2727881262909191,0.16203805673567317,0.05011067247283507,0.0,0.06856702818289251,0.18094891070505104,0.2911420921973018,0.4117879170887495,0.5335489715673047,0.6470138201587632,0.7585738785116114,0.8521242021690492,0.9013924817970838,0.8736243396530983,0.8589223128069292,0.865492187457727,0.8252835338602862,0.754278898529601,0.6844784647611502,0.6240348877343946,0.6404167164421055,0.7046262104333822,0.7866143903649989,0.8545416578254017,0.8799846081388527,0.8669064361942451,0.8436461305357497,0.8345457706851833,0.8629971622068247,0.852621751036575,0.8290697795079367,0.8405433480708215,0.8822409205139394,0.897161474142105,0.8806561376681896,0.8595921040004646,0.7638441433868535,0.64919639201149,0.5344905746718449,0.4216419492521968,0.31069302956111033,0.2003954196476736,0.10450377079397999,0.10095870925739892,0.19854590258185278,0.3150131840047934,0.42494233709086404,0.5380510726811949,0.6480251623019699,0.7405952425295201,0.8007909607504182,0.8416395097195635,0.8423732438501152,0.8508920852586155,0.8034288939551766,0.7282908117243878,0.6493186490153706,0.573039777147357,0.5601669987176974,0.6176688892936111,0.695821692324609,0.7793009604704444,0.8497248358502658,0.8458866379470618,0.820195590705407,0.8400845083148398,0.8723691860236993,0.8594843239950969,0.8707581695687441,0.903663528951818,0.8965980764503125,0.8282690635916861,0.7101861531214781,0.5998873632651753,0.4846020694777049,0.3740476239401318,0.25862734331854154,0.14852208491085084,0.08014505401947014,0.1291217638931439,0.23611521135046742,0.34785230431227965,0.46933014853941857,0.5905859544392704,0.6979274422324624,0.7669872989049422,0.8231901501792664,0.8597598167300398,0.8456440161387844,0.7951168016452816,0.7287291985464119,0.6526440256306005,0.5651577048098224,0.5067855157179493,0.5387566954931666,0.6195606973373942,0.7019532327288298,0.7756765190883985,0.8195265004199632,0.8101238274692901,0.8247091858422306,0.8315175506126307,0.8207264565861838,0.8466664646860764,0.8776631383984139,0.8811259888613112,0.9153863543749574,0.9013410033831912,0.8769549268517591,0.8921486185912324,0.920944952905536,0.9450147532874607,PM
0.8230942659174172,0.7947458157293927,0.7489258679812734,0.6830855827739075,0.6130479021666968,0.5663336109834822,0.605152004851524,0.6721737035182636,0.7389814642662791,0.801368050768644,0.846147854478625,0.8727902646729047,0.8977665789806033,0.879749517320866,0.8249757079727162,0.7509292321040633,0.6554536467081329,0.5551614304950161,0.45034582624393127,0.3916975182249285,0.47016746522356834,0.5696933049839199,0.6678419135099416,0.7533350048744105,0.8415779489066582,0.8965578473546403,0.8940535541645889,0.8888769047255156,0.8367445466252925,0.8240858360946084,0.8546178080806395,0.8682128790681962,0.8621034905959029,0.8691007961505894,0.8797374976935939,0.9207930535237541,0.9260907633238213,0.8922552343875418,0.8355387327714987,0.7743258414487175,0.7088113234989426,0.6771464702922794,0.7345450530052551,0.8029258844434866,0.8723774053718736,0.9298564560732006,0.9658837182469462,0.9900775933242882,0.9986274979338186,0.9921929449718241,0.9428362121686895,0.8661385406295015,0.7696709148501557,0.6703521337483775,0.564020690134202,0.4795779149123174,0.5130905068522651,0.6108827468987084,0.7144329505491629,0.8108788415434125,0.9050289015659967,0.9859054428374456,1.0,0.9629738103792977,0.8960806536179549,0.8260609770809504,0.7540685708939696,0.7426512187129028,0.7740432691236405,0.7923075584605108,0.7892553168676635,0.7830707177237333,0.7763956901701063,0.7847542450867349,0.7634514801769101,0.7248730173911047,0.7329736728965193,0.7531202551603164,0.8010938984184208,0.8666131267347663,0.9240925487163798,0.9229232470622959,0.8859441262351067,0.8917305733323859,0.8832572395745806,0.8265448387871852,0.7508563331467628,0.6581604216262136,0.5593052497830837,0.4541772909322499,0.37715881506515614,0.4239247805702473,0.5242251319166438,0.6221048066548578,0.7199327663900035,0.8233983218395093,0.8740595483782414,0.8483330126518336,0.7973081661155983,0.759781558312282,0.7650792410529887,0.7969240321271402,0.809372062565402,0.804567304145241,0.8063649047388464,0.8122224151126392,0.7951207548245436,0.7653637179122912,0.723654946696263,0.6681211567036192,0.657673098889759,0.7205128127170566,0.7919968215868787,0.8545342873054391,0.9080995163440768,0.9477978520319716,0.9703563202448291,0.9776588100057038,0.9472271017867722,0.8873255286423296,0.8897122816781109,0.9237003401808441,0.916820075008367,0.8867879751687799,0.8324785850875451,0.7706636269375808,0.7010037662302526,0.6327538161999389,0.5928845053762597,0.6227988638416222,0.6775804704620949,0.7237838445538602,0.750603606926175,0.7556417871852177,0.74977000209189,0.7575922753789701,0.7557342130536093,0.738829162649953,0.7057780501423134,0.6989914792450973,0.733714609542444,0.7799897947540511,0.7997922899919017,0.7353460900105686,0.6373501981423542,0.5393951788003419,0.435908172801299,0.3262823457077486,0.22329711791013795,0.12174972914884097,0.027677933168837265,0.0,0.08023360757998632,0.18227951481081828,0.29121224598182516,0.3916280822381468,0.4968118823315677,0.5964426930788478,0.6956178133511162,0.7822121420441586,0.8340829706776041,0.8383607336004264,0.8304341007629241,0.8415730840252418,0.8544910122907003,0.8042380426278015,0.7351204171667116,0.6862234616326028,0.6603459158895433,0.6757238590133143,0.7199073155498019,0.7388219652218839,0.7396770552957466,0.7408084197417537,0.7300825568593043,0.7341322670668347,0.7173846962569796,0.6841833114189009,0.6867205395260352,0.7558973433237774,0.8337105644851173,0.9045176172994527,0.9433864418873408,0.8915558833155193,0.7920873620687678,0.6912941335374643,0.5909961986334369,0.4897252504617504,0.38949086405466193,0.30405935640138204,0.21368811392001175,0.1455339503054236,0.194872930675849,0.29265771108944816,0.3987436017473751,0.4997929175243676,0.5918419258589158,0.6925646664737499,0.7926767450200543,0.8763202216813646,0.9312701848883456,0.9333991918685838,0.9215553025322856,0.8843112459792888,0.8216186688986573,0.7563760370651109,0.6821914173265458,0.6209876550202424,0.6191809090924636,0.6761802228759191,0.7431011800511111,0.8032560296756412,0.860908839540178,0.8797563318825343,0.8431432228571785,0.8212334978931901,0.8184400796532625,0.8091251204400902,0.8056971489153457,0.7792105834935628,0.7778662106595187,0.8135078273791634,0.8327634690437131,0.8078552725897765,0.724499025697317,0.6253822140787277,0.5266511014913653,0.4277725318877905,0.3260936143194506,0.22353926460720674,0.11993621113556285,0.023281856748025964,0.00625721312965255,0.09338713226754436,0.1984407866434803,0.298969290395267,0.4079606785161234,0.5100333968590576,0.6062937708089944,0.6909180915183701,0.7733829584720171,0.8273728807435812,0.8358384236112855,0.8089864782506244,0.7718776644890166,0.7070368740619926,0.6395011855043395,0.5710008744026265,0.5047393056742573,0.4976014987979416,0.5491879684208358,0.61757301029462,0.6851938005784262,0.7405502286282037,0.7737662273985517,PM
0.5156212119937789,0.5132616367467864,0.5003870644860404,0.5009007334055586,0.4929246468310424,0.5451953332319031,0.5952350864124263,0.6236118254673433,0.658115024491734,0.6611361337041926,0.654932520904079,0.6496066796687914,0.6535691323391197,0.6528751111628783,0.6354487631455781,0.6511495199134947,0.7606071519558717,0.8677302474919433,0.9562190013784582,0.9260491181230925,0.821380680853427,0.708469363838991,0.5974043525791677,0.5230529941481343,0.5415813686664372,0.5738911466083465,0.5891008547504435,0.5972317477410463,0.5816443211961015,0.56717049525097,0.5520696433727483,0.554761130838608,0.5688574732078124,0.5780028209911028,0.5765213072291644,0.5621763865698997,0.5870347960778202,0.6353222574433248,0.6797771456467334,0.7049727118164708,0.7231428109163409,0.7297935389973871,0.7217216679550646,0.703851808149305,0.6863669961125076,0.6308287205743119,0.6254478996314083,0.7213033077135154,0.8403229237490715,0.9441486692250689,1.0,0.9353444880287447,0.8249832758095668,0.7160789690904621,0.6044444030343583,0.5734413078455227,0.5779959289470114,0.5699929583082488,0.5576918500689461,0.5565752256747518,0.5278002105856059,0.5109959616729975,0.5299783833320983,0.536581239886257,0.54370061398315,0.533382896468038,0.5141887383106352,0.5013612538992134,0.5325243907148378,0.5791424240876015,0.6165062188860526,0.6405648175103611,0.6611663734319211,0.6771120636331789,0.6755117335575691,0.6713867008361891,0.649148074889113,0.6063986946443123,0.6536322498337825,0.7636786004035905,0.8732173394933782,0.965408581690578,0.9546894105629016,0.8597884541893053,0.744420078172261,0.6386032510998176,0.5650478902034433,0.5925201803432558,0.5964685781370465,0.5806276664478589,0.5777756571831452,0.5644427602770179,0.5256349855290061,0.5132133337274492,0.5317454627007292,0.5432941101067152,0.5386351154215117,0.5363223991055439,0.5234440965883982,0.48780288278838757,0.48431908259775813,0.5299900004448492,0.5694883962877872,0.6098532070578475,0.6313373511806688,0.635018446869112,0.6254525603774685,0.6304887275281743,0.621585414387964,0.6086294426525538,0.5928131996111627,0.6829127772063113,0.79607672338539,0.896014281287179,0.9081451618894198,0.8229180944135486,0.7394214525139016,0.6290858525660998,0.5306840139202338,0.5269093602690784,0.5254602384580633,0.5233153843167169,0.5142018714269012,0.49854555394254163,0.48316839798301103,0.42882919584238,0.3687225324114207,0.2613107417672591,0.13939518250287275,0.03329489087427051,0.0,0.026585043810520403,0.12247314236619378,0.24421871990939437,0.3543368268203757,0.4071702099013925,0.4438029679124691,0.4509021201813779,0.4589341328412839,0.4503738197606939,0.384181458490815,0.3577011126972547,0.4297365643433597,0.5238583277660549,0.5080231859126156,0.4112391636526267,0.4105833456696786,0.48983473454009996,0.5513707387316087,0.5692105731269925,0.5697825772526537,0.5653825492180737,0.5476350309103757,0.5161386479278143,0.4810687592379268,0.42832540528533425,0.41033583421003295,0.4323354061070246,0.4516166978877325,0.48145617550611464,0.47467657297718,0.4729027619479811,0.4570536224602595,0.4372903113926707,0.45020243676786054,0.49711321472079995,0.4978066651592794,0.5212179322737982,0.5326224497410759,0.5394255866725683,0.47908125390019274,0.4055877434480575,0.417913317164464,0.5110491932031298,0.6182303832987008,0.603377488355116,0.49814598494367246,0.41938845355157284,0.4394483814359469,0.5247666285255481,0.5910529018975317,0.61106592193314,0.6078347741279604,0.6007900146232461,0.5905247779165625,0.565802340570658,0.5293664006569951,0.48190136117996296,0.4409357476682727,0.43362261349664166,0.4609189222007779,0.46950011507594924,0.47545341628888593,0.4807101277615784,0.4564789714692119,0.42458764784992464,0.4233344319335468,0.48164113550656573,0.49018149257970345,0.5024853971724372,0.507269502639391,0.5028967329560325,0.4459582143967844,0.3957179192785367,0.44670413167611756,0.5592819540963521,0.66786697821047,0.6368026448179509,0.5354001565758528,0.4480335119787644,0.45203875406359506,0.5307202052601356,0.6079000222751381,0.6418472720553168,0.6593217815682975,0.6706461472748781,0.6528742677212391,0.6332191775324527,0.5961449752030057,0.5466354018438988,0.5054761308655271,0.4958788635517686,0.5084334640703125,0.5133201380920949,0.5073326484439007,0.5032328999809823,0.485577866781,0.45775946553435265,0.47945444164780593,0.5167987472707534,0.5252918426650779,0.5331723120973604,0.5098082371579062,0.48437471148336053,0.43442441963266853,0.3773523506336809,0.40903322265765096,0.5052335156930678,0.5206981314625492,0.4443749740426606,0.4586650770753562,0.5406424737544504,0.584585913437373,0.5845559030954006,0.590592175093339,0.5961313545294278,0.594888105321274,0.5512520983535483,0.5210331701811,0.4697237473485285,0.4136744773178207,0.4194258467687688,0.4434016446959683,0.4565496483046019,0.4654965668304567,PM
