0,1,2,3,4,5,6,7,8,9,10,11,12,13,14,15,16,17,18,19,20,21,22,23,24,25,26,27,28,29,30,31,32,33,34,35,36,37,38,39,40,41,42,43,44,45,46,47,48,49,50,51,52,53,54,55,56,57,58,59,60,61,62,63,64,65,66,67,68,69,70,71,72,73,74,75,76,77,78,79,80,81,82,83,84,85,86,87,88,89,90,91,92,93,94,95,96,97,98,99,100,101,102,103,104,105,106,107,108,109,110,111,112,113,114,115,116,117,118,119,120,121,122,123,124,125,126,127,128,129,130,131,132,133,134,135,136,137,138,139,140,141,142,143,144,145,146,147,148,149,150,151,152,153,154,155,156,157,158,159,160,161,162,163,164,165,166,167,168,169,170,171,172,173,174,175,176,177,178,179,180,181,182,183,184,185,186,187,188,189,190,191,192,193,194,195,196,197,198,199,200,201,202,203,204,205,206,207,208,209,210,211,212,213,214,215,216,217,218,219,220,221,222,223,224,225,226,227,228,229,230,231,232,233,234,235,236,237,238,239,240,241,242,243,244,245,246,247,248,249,250,251,252,253,254,Target
0.2649698722850715,0.24993960790057734,0.24981155434011892,0.24002902921110536,0.22434727234671303,0.20525000966224116,0.17753367638638906,0.1473778543438744,0.11468400219992514,0.08009326330865552,0.07422564020336742,0.09040240310604641,0.11536332745305167,0.1315691519382982,0.14925416424864668,0.16576817607174288,0.17471539556981952,0.1909914580600125,0.19959148073028032,0.20161577941759123,0.22443743528112137,0.2478317617173973,0.2748954196506075,0.32677651316474865,0.38347327585403335,0.45047275541879994,0.5093376347042575,0.5767581157298869,0.6477029094478421,0.6865096147911807,0.744611822853245,0.8038750476186847,0.8791161275416473,0.9520675767001308,0.9951689034237026,0.9899985189194158,0.9401061091107579,0.8775973698248238,0.8148319622477569,0.7393555500349409,0.6649387292382682,0.6087024754762327,0.537836811173956,0.4622946034684352,0.3869048570502116,0.32405316863601197,0.2608764267787915,0.19843588984954863,0.1649467319845508,0.19567379705072607,0.22292359162105324,0.22472913400126515,0.22472955884092993,0.22454934339857946,0.2112333704389453,0.19965703167671833,0.19368024354648927,0.1614961120388143,0.14943538942958412,0.1500021130902347,0.17184171849585006,0.19864558811544075,0.21851386072326662,0.21859602109476395,0.20407720671262197,0.2232120144194747,0.22472921785119926,0.22472955884092993,0.22472955884092993,0.22472955884092993,0.22472955884092993,0.22471436796244504,0.21817968238486518,0.21183945805954174,0.22455077970727633,0.22448614581589243,0.20964593201893944,0.19965257489592947,0.19779653811306375,0.1757958891394633,0.1451993305277064,0.10906240209199503,0.08340646179965283,0.05848139328350843,0.0490178883382133,0.06228792640666603,0.0949512774767296,0.1194006319912102,0.12432523135197115,0.13795882791450076,0.16967142741492047,0.1793920453446658,0.1985861197534753,0.1996136613266799,0.20053979488197893,0.22123943970343252,0.25158484006136117,0.3092267606558732,0.3604230658194991,0.41601737029455954,0.49058490424749834,0.5525287138811237,0.6167314339465824,0.692177196404006,0.7677189680898708,0.837799540209061,0.893433781727679,0.9412114393712354,0.9441006472566045,0.8994417608718095,0.8344810640898643,0.7751677097101872,0.699860276970445,0.6267673567542165,0.5721474896651433,0.4983427623184937,0.42279957356874576,0.34977919585007555,0.29524789789376804,0.22165260219162697,0.16821876538145908,0.18790025432133906,0.22171494895894472,0.23091901190919373,0.24939805352260436,0.24984525511533917,0.24984526629533033,0.24984526629533033,0.24981585767621528,0.2397070939477075,0.20307623655706042,0.18232245013819615,0.1993749103958793,0.21694627673878575,0.2472413478622686,0.24984459829085637,0.24984526629533033,0.25002852611910864,0.2653966207003293,0.25568987356233563,0.25005743505012124,0.26550001125023037,0.2520573629766245,0.22766825740779417,0.24934865624365532,0.27250287201562706,0.2640257271927817,0.24992617474114365,0.24984526629533033,0.24984514331542762,0.24903522923489874,0.23011473048886621,0.22387975623385703,0.2008083497874873,0.17132086447103667,0.149445040301587,0.12425952330901335,0.07580720856752876,0.04549277880333946,0.02724438244606331,0.04935779199984003,0.07234079860264009,0.09412353954618435,0.13114451432085605,0.14951686068742465,0.1697251262943471,0.19759780358638768,0.20244066597363908,0.2227684714263125,0.2276369516031833,0.24795361846718222,0.2594065861540811,0.2848230344604845,0.3280505652298773,0.3815126081771645,0.4546862754949581,0.5125596048666479,0.5811909065819538,0.6534493048715513,0.7089105787218921,0.7826914675858632,0.8548450718364817,0.9103299852187066,0.9731837261645522,1.0,0.9624359463078456,0.9073486721722954,0.8357784379621211,0.7604375990297223,0.6987290912435133,0.6342136443766835,0.558732893690248,0.4893770795096817,0.4321107891633762,0.35742159981877286,0.2961287940791051,0.23147753048456554,0.19084442099447418,0.2303268259939797,0.2611794252426254,0.2681456212400555,0.25041088152284807,0.2496032895789897,0.23479771761924884,0.22554079304819385,0.24266876274709404,0.22606235203620795,0.20088334509121175,0.17052757869044388,0.15439797173966063,0.17336304522697255,0.19151091663483033,0.2234171514489791,0.2247293268561128,0.22471122934163734,0.21729048538697882,0.20004763919894852,0.19961385138652954,0.19961385138652954,0.19961385138652954,0.19961385138652954,0.19961385138652954,0.19961385138652954,0.19961385138652954,0.1995934969705866,0.19163690526323052,0.17491878325478982,0.18806588286364434,0.19949003223123896,0.19140038932122394,0.16654144099988688,0.1413629552925455,0.11618446958520501,0.09069654032367858,0.0546702369049914,0.017307582598395488,0.0,0.02023955180830761,0.03816378546837651,0.05466044218709376,0.08788524810152687,0.10018295449250836,0.12097494854421331,0.13907300768333997,0.16412275559372258,0.18041374017784406,0.19906952277258316,0.20575377788429527,0.24046341703087926,0.2781417048347157,0.3222673791660142,0.38861722267510324,0.44569346175314095,0.5207966189188449,0.5882835992773368,PM
0.11343177384679515,0.11912201076099738,0.14059449823551406,0.15783152754961116,0.16724701581233847,0.17367556910609316,0.1783676206205913,0.19605091345399073,0.22956861032444387,0.26704812109550957,0.3047406361438876,0.34788693461996845,0.3944741802699039,0.4346618225974943,0.47739563261793094,0.5171518885627511,0.5619061582710567,0.6016254299754029,0.6478841436159748,0.6921085719670146,0.7325729230816063,0.7792089239572519,0.8256937881705635,0.8656951185366812,0.9105223519517158,0.9554404096861269,0.9921266237628552,0.9999999999999998,0.9668699678067594,0.9241159680724669,0.8827218449514216,0.835913899933397,0.789837905910604,0.750213461139819,0.7068333888096994,0.6741117085475643,0.6326876091425226,0.5921022530672675,0.5454027342509946,0.49845458185335256,0.4515075594768314,0.4056659286813198,0.366145741164144,0.3203123368420375,0.2787524701638413,0.24127128769876438,0.23283121397563766,0.23077011998041352,0.22469531399611786,0.22463208751722652,0.2302437412143976,0.23235278103503365,0.21398566006544972,0.18928351279442146,0.17717638071371122,0.17682614850868816,0.17682609673750083,0.17682609673750083,0.1768260353998985,0.17649692098186298,0.16784586342350538,0.14646779393126308,0.11844543894218984,0.08807344207314283,0.058273046205889356,0.02918861182250021,0.009343106908217269,0.016019263503226133,0.032817536519129664,0.04595480003563468,0.05269081904641748,0.054501786664214125,0.0684120831417232,0.09766384160571251,0.13678125778229577,0.17613211382495741,0.21513723408479546,0.2542055827324412,0.29466043000634223,0.3373895344344522,0.377536934413927,0.42178474456681725,0.4621612132686663,0.5063621722895464,0.54857708547837,0.5908583988744189,0.6377271932495334,0.6833540856424409,0.7229778686961044,0.7690427025652176,0.8158539155589748,0.8571125268882074,0.8861852775784536,0.8681975488288194,0.825845955069447,0.7856962774128597,0.7392264711133618,0.6977275865195811,0.6546965658792285,0.6077891688435584,0.5616657441676256,0.5220147672856341,0.4764735522652579,0.42976427582750176,0.38899443340511786,0.3451988924566425,0.3025216549137184,0.2607212315459291,0.2161795133099682,0.176065126868445,0.13324527319451684,0.12370393023591975,0.12540262731136176,0.12908255562588278,0.1293601700232765,0.13892908054795283,0.15573765800382455,0.148069486656059,0.12800379356894687,0.113980551191041,0.11927202958143468,0.1248829044237938,0.12911680489230837,0.12941719610200897,0.13578006889569783,0.13865485154292578,0.1348030656247594,0.11190944455095364,0.0798968462757621,0.04942887966791809,0.021052662943593203,0.000623880016531686,0.0015363585044796402,0.01864161095370509,0.03434041994306791,0.043616127967619045,0.049320968324838343,0.04763010984191296,0.06779088173402736,0.10007198070954004,0.13747365667829947,0.17677825609909648,0.2165367669764986,0.2561546551866174,0.3010604939432209,0.3470158190472963,0.38653341667605967,0.43228505843386,0.4740917341375859,0.5167824086353057,0.5620389810122155,0.6017637697139551,0.6480459827300324,0.6944036086079082,0.7342298266513614,0.7793632211461425,0.8258349826223175,0.8656429857993404,0.896622927405162,0.8824330999187093,0.8418231617897145,0.8008079510643424,0.757354482039313,0.7108348728767246,0.6707411177748643,0.6260587174230203,0.5794517260319514,0.5390725118392032,0.4947424783969494,0.447805898335196,0.4008577459375533,0.35391213886995976,0.3083204250702454,0.26876278748949933,0.22376833679150043,0.18428644788564252,0.14212535967494166,0.12958227318718474,0.13573892189000358,0.13868111615295908,0.13933706663665424,0.1507326477862989,0.15416289025678132,0.1362878647401271,0.11708115834899036,0.11761879432345657,0.12510973028093098,0.12519870229393626,0.1267624458694503,0.13242317078445542,0.13849220245621363,0.13829317883415082,0.12692919290173021,0.10156716221767703,0.07072736350606279,0.04173947871265371,0.01476373179239654,0.0,0.011651539535141975,0.02788597338413701,0.04299785508582077,0.05172287011720922,0.053708021517341775,0.06629293095697997,0.09486169335208139,0.13109458330930046,0.16866155482251188,0.20756099819946594,0.24686506228876381,0.2888253929306779,0.3305086071810368,0.37347097184819034,0.41489902419705493,0.458117288515719,0.49930846007880314,0.545320842414774,0.5848685977185293,0.6304800173672798,0.6774233424612974,0.7228789495125458,0.7625571202228667,0.8087389458779317,0.8551711053819824,0.8944012757350077,0.9149112238378831,0.887159949043532,0.8453770745029308,0.8034635970838788,0.7566309538962639,0.7136562486590166,0.67211113197746,0.6252818757109952,0.5784444940439799,0.5367080357350167,0.49392050910977736,0.4471079194247962,0.4058647587308959,0.376458599238249,0.33620167234828857,0.2966149387023447,0.25057784293421714,0.20954292609459402,0.1662016186594184,0.13349208946422797,0.13725883674488126,0.13869642216029776,0.1387604301637393,0.14461682145434485,0.15601299954897496,0.14567730246963273,0.12450007961062304,0.11313651992889096,0.11923421381390686,0.1196359853572706,0.11963607032954537,PM
0.11559564978093473,0.11279422246768545,0.10242550682897456,0.0837814532216643,0.06094105951166906,0.041476056347024226,0.0364534690632663,0.050444798546672054,0.06902454984396478,0.08657838791601957,0.10572170903789258,0.12896493125404396,0.15139310560881292,0.1681107162009574,0.18646867913745035,0.2005730432061712,0.215913437767157,0.22917065089715116,0.24397910224025265,0.26106525973875616,0.287505872034133,0.31863157976818735,0.3568692567817764,0.39203406006784514,0.42662347153417746,0.46426405677013505,0.49683254072885563,0.5352247192976545,0.5741094053940434,0.6079373260273486,0.6439151086654233,0.6828956408139164,0.7184951379882434,0.7526738657280583,0.7915712757342783,0.8273154972950425,0.8613588008468049,0.8980822669422808,0.9304071668368965,0.9534802013705228,0.9417664316131167,0.9054155433853879,0.8729826519976842,0.8348491457122877,0.7958212889387122,0.7568042376775397,0.7201457171345793,0.6869088576518216,0.6481200896763597,0.6090921863610235,0.5708271635259639,0.5383290900464339,0.500418041191558,0.46139040733887593,0.4223619242637442,0.3833336614556859,0.34497349128838684,0.31288141321072693,0.28180237963529353,0.2595306082233304,0.2516252550343192,0.25596627606229405,0.2673574657787172,0.27460901892463907,0.2734770243269766,0.258309364298404,0.24041547842033517,0.23986167865113628,0.23042231122350354,0.22148345314038975,0.21372712904586644,0.2078701804959424,0.19955209857122003,0.18720818279235596,0.18318609866420799,0.19020493586784903,0.20115518352683748,0.20941154472590928,0.2186978709771159,0.23001594428411987,0.2325016040972967,0.22521919511090838,0.21244036087980445,0.1896832267828732,0.16821352721769345,0.16076079773673824,0.16569333899246907,0.1697807155150799,0.17054011304000527,0.16117993193423708,0.15291149708546548,0.1415222547903876,0.13263564343235656,0.12146173080388589,0.12636220206184312,0.1513144185137536,0.18128420162614,0.2132871562615366,0.2455074155784267,0.2829856578727503,0.31777324989615097,0.3527436863721576,0.39171215039399443,0.4295526905742071,0.462075910653448,0.5003854366103364,0.5382996335452332,0.5707964496947775,0.6090592050895443,0.6480620322454222,0.6839096283679267,0.7177919889184676,0.7502629903730846,0.7777318866935472,0.8100374025355161,0.844610370095729,0.8601089638893469,0.8385244856576244,0.8016878516607664,0.7629503285313026,0.7298552555256745,0.69301453196258,0.6539925072481034,0.6149640241729721,0.5759359732805185,0.5376369388410709,0.5051200054117577,0.4672619226117678,0.4282343418354879,0.38921273755818464,0.3521001538343609,0.3191958886971582,0.2805331868034715,0.24177821860845983,0.20862114475224192,0.17287299613034746,0.14049472275831776,0.10658158845717236,0.07497585928310913,0.06135705508550604,0.04277270472581529,0.024345157944554163,0.009701089945604702,0.0028041787657095973,0.010445631475119566,0.006017531724736402,0.0,0.012296004433747898,0.0317278915225796,0.05740091474288089,0.0794198329557474,0.10168105078837741,0.12453877522064905,0.145049533155307,0.16789094639840973,0.186924172840353,0.19827643436851727,0.19980335440959762,0.2041735242120788,0.21036919179909197,0.2218786577881855,0.23522288427178095,0.24941552243141363,0.26270660701751614,0.27282172246030645,0.2741835876707337,0.26322834902887027,0.24482871426546104,0.22289523286286506,0.2018566091149152,0.18479737277318842,0.18298386694103463,0.1952439866027018,0.2033626840868965,0.20596267741734886,0.1969191453767538,0.1917789247903059,0.19765573251262492,0.1981682985845623,0.19397027047045046,0.20994230510052092,0.23743044410849,0.2700753365419277,0.30570082485482986,0.34098653116414845,0.37542900063546436,0.4143780756549691,0.45340655873010016,0.49243504180523234,0.5314584229291632,0.5685976415477603,0.6014709969293177,0.6401363427973572,0.6791647241427159,0.7181563269770055,0.7534181339163131,0.7879147538496494,0.826865923405069,0.8658909478712227,0.9033918047301417,0.9360400364619008,0.9725382775654778,0.9985521389629546,1.0,0.9700524045718955,0.9345726305104431,0.9004217158287502,0.8615065888563671,0.822478105781236,0.7834497164744167,0.744763883058934,0.7118591258173459,0.6747715698045085,0.6357484234437516,0.5967199403686203,0.5576979274873055,0.520554904188997,0.48767017757695585,0.44901874110626805,0.41006181157708244,0.37541627787319376,0.3403060869577712,0.301317541843916,0.26228905876878406,0.22326336845136385,0.18584822806722112,0.15439077713394345,0.12902388283466526,0.12407769035315153,0.1274220533828656,0.13830540045448259,0.15633856295111048,0.16567515018883983,0.16025916169066212,0.147019017163867,0.14863076703071143,0.1551248325355079,0.1576538954740132,0.15563035327895758,0.14424334538425354,0.13372572363711566,0.12899673761696095,0.12455384950576542,0.13388628301162941,0.14563402715331342,0.1599199798981943,0.17153861048728203,0.1846941009739127,0.20178677694164215,0.21441407608941332,0.21328081727492854,0.19940434127829,0.17669731052972892,0.15232454620229774,0.1327911810829745,PM
0.1625637008717158,0.16256834152594157,0.16599353793014382,0.18201798885252218,0.20969496181581038,0.24328306991308768,0.280876289259699,0.328847061707064,0.36688251397291305,0.4158111661058572,0.4566520318689835,0.5007677902872727,0.5396427716062768,0.5854992924847662,0.6232458799264751,0.6718189387509161,0.7135678071581912,0.7398098913496209,0.7207724122012489,0.6875891847582731,0.6586173477599555,0.6127890587003595,0.5714457394436034,0.5272839894537205,0.4798980912281876,0.4413459540597531,0.391720824801443,0.34786627383589863,0.30626182656408263,0.2575998694125152,0.21987500600549348,0.18418229179212187,0.19192920148308046,0.1877736550049196,0.18935060505308998,0.20699824821883528,0.2080463354106734,0.19454530302742823,0.1578388448015562,0.12386145454962572,0.10702049369363209,0.12826074920862318,0.15276389174133476,0.1624393409981857,0.1624836604237503,0.15462045193812202,0.14735094315991404,0.14729508471852215,0.14734262638115103,0.15432782879011242,0.16245940028434802,0.159906357176832,0.14798520372430346,0.14729516886532856,0.14729508471852215,0.14729857263507018,0.15034828389831034,0.1619557577029016,0.15549825827204478,0.14737589349620306,0.14729508471852215,0.14729508471852215,0.14729505433217538,0.1469966191410932,0.13601518342070218,0.11619227953037425,0.08475423150328165,0.0591323396304384,0.04142795694505352,0.046934939063915326,0.06356275909017395,0.08145776074632138,0.10038131907888248,0.1131659015173394,0.11675110261590183,0.11675785241213577,0.11675785241213577,0.1168802450836317,0.1263365064773998,0.13437939027350643,0.15730271803415885,0.18763232976214983,0.22454184742189298,0.26347818411570056,0.3089865174409798,0.3468092348436307,0.39527698901273967,0.44545791614787866,0.48652450762788213,0.5309295130947653,0.5811868598758805,0.6275138599226873,0.6668598699594863,0.7161810845532255,0.7547331819856673,0.8021190802112002,0.8462766443703105,0.8834749143510141,0.8929591250148254,0.8650607986821264,0.8227241788255197,0.7728639317248929,0.7336805767937866,0.6871695954257078,0.6368787709012111,0.5865823132681895,0.5372396231460845,0.498942613971487,0.4513454933121759,0.41232604137547213,0.3656311184221144,0.31568176388355607,0.2763356954114746,0.23019794487124745,0.18942520858196144,0.15802727444069786,0.14741230590009247,0.15025285176464376,0.1703976027917231,0.1777821257508232,0.17379577194300966,0.15159800763619957,0.12468283857754292,0.09145009444003538,0.0826680817090284,0.11767452368549103,0.13695906316828088,0.14706214457626254,0.1472928069769357,0.14487111031858024,0.13277328416149103,0.13202657141142504,0.13202646856532896,0.1320264475286277,0.13177173102216022,0.12174223444766064,0.11676652764823325,0.11676249306636155,0.12018016697214273,0.13161887106385795,0.13202651765096585,0.13277328416149103,0.1448711103185798,0.1472928233388151,0.14729508471852215,0.14729508471852215,0.1472950777062887,0.14710585858605496,0.13788678191076364,0.1299694567214451,0.10925696753256275,0.07837171265707354,0.04513726498695059,0.01869574840331234,6.639398542684916e-05,0.009138049172358276,0.02044346136060682,0.044761631742793906,0.06291584120155402,0.07979946568102303,0.09657663809299466,0.11267523704655202,0.11674587230023992,0.11699439869487227,0.12750217051091406,0.13211501725174024,0.1412647456545444,0.16356103788989973,0.19686119866489893,0.23413940564897207,0.274093518460949,0.31895532376289815,0.36580659671463733,0.4046645105393232,0.4545500967981648,0.5017969496908679,0.540442731796809,0.5901748316603692,0.6404712275227005,0.6898510990157654,0.7277235396046073,0.774978760547488,0.8056328311456804,0.8451204418340703,0.8828122703839547,0.9307844199058648,0.9690189369007323,1.0,0.9927163856646621,0.9571100783698765,0.9072232524852502,0.8578805623631451,0.8195835041029103,0.771600672164666,0.721305236689457,0.6710086187730542,0.6207120008566536,0.570495423388218,0.5280620139574435,0.4850678061937943,0.44071865916830344,0.39965206768829864,0.34949719672351254,0.30463068298240836,0.26402356148882644,0.21769624568554002,0.18539833575272624,0.17784305960932745,0.18001858619553968,0.19937483559134117,0.20828660235185925,0.20535447646794047,0.18393454646312124,0.15875740145219464,0.12726143843772952,0.11087400376350587,0.13932659689233162,0.16031472983485706,0.16256160111480256,0.1625637008717158,0.1625637008717158,0.1625637008717158,0.1625637008717158,0.1625637008717158,0.1625637008717158,0.1625637008717158,0.1625637008717158,0.16252033886584671,0.15549832138214992,0.14737589349620306,0.14729508471852215,0.14729508471852215,0.14729508471852215,0.14729508471852215,0.14729508471852215,0.14729508471852215,0.14729508471852215,0.1472926617160213,0.14462836438251747,0.12868000742804186,0.10550751090193033,0.07395642699334326,0.04531762639911241,0.015182138007176604,0.0,0.011299336217320377,0.026664949014473915,0.0487751863454422,0.07037292214016633,0.0852980226533595,0.09893432846842387,0.1145631126687312,0.11675583680202894,0.11744797141791707,0.12932837802240726,PM
0.09976146213192916,0.09976146213192916,0.09962992334736898,0.09175474281962215,0.08622111771519059,0.0977998624149321,0.10979410827271163,0.14329426041922533,0.18573759167112147,0.23531934918134878,0.2827012662386803,0.3394088743734498,0.3888663711764644,0.44309703174609893,0.501073534249187,0.5486258861735078,0.6055448308514615,0.6635762673668295,0.711140987542886,0.7680151443183858,0.8271027886607931,0.8861495040286682,0.9379620045346537,0.9557817660740824,0.9315200113740851,0.8768398868855694,0.8192977582959409,0.7719185618959181,0.7143774237528611,0.6557204327467181,0.6069456448912081,0.5518981823030509,0.49281897755911164,0.4351619727532574,0.3878116938607472,0.33074491044089394,0.2822638008340359,0.2375613188279555,0.18622729082250844,0.13800103718961498,0.08629311342026735,0.04704105374206646,0.04056699718192247,0.04135432656608984,0.05904557638548713,0.0911843469914757,0.09932542429902025,0.0811334647623152,0.043599863334017996,0.02853170965531726,0.04034890965805049,0.05263926149275111,0.05535263847000005,0.05535652100471289,0.05535652100471289,0.05535652100471289,0.05535822532420287,0.057443581507115926,0.06894732520152047,0.06005726676698009,0.055368982825078294,0.05430255651042115,0.03623474777420954,0.025858682301754143,0.025715204127863434,0.019582009557878255,0.0111684467965385,0.019437839987154426,0.030172352346000242,0.030453933176776804,0.025771183221518612,0.02575322691990234,0.026272079051721686,0.036478218550578756,0.028446773943581416,0.03968985563746763,0.07217354833419609,0.11331322305266145,0.16463877747380407,0.21361716438957545,0.2643883562105027,0.3150776390723795,0.3623152992467089,0.4201445755381661,0.47751510685003007,0.5248304006160862,0.5826153709653625,0.6416173258931561,0.6929459791047323,0.7451510238030568,0.7999764325313943,0.8487737044871917,0.8992756116750265,0.9233585964672937,0.8900228839851034,0.8403539485751126,0.7816614653198948,0.7313911293875903,0.6780614789605774,0.6191870513191082,0.5688321332621911,0.5155896614576414,0.45729087743918573,0.40941484920979443,0.35332535745529947,0.3028614483846921,0.2548421285938631,0.20595693071376564,0.15897233996259974,0.11484153912874584,0.08633681153155637,0.08496878598002944,0.0890545977468511,0.11390475854680826,0.13939523434987322,0.1418464618416846,0.11495117264957111,0.07839670574292423,0.08075271538705486,0.0917213605249727,0.09131754546544579,0.08501438291136054,0.08495981508952388,0.08495981508952388,0.08481989690392622,0.07678916917902034,0.07021404889398308,0.06821582241426505,0.054691002850963066,0.041825858666200144,0.04055325554549327,0.03867511607199203,0.02703668223417388,0.021350387508047408,0.010738666193027768,0.0,0.00731610464252519,0.023930593421441326,0.03570702242634782,0.0405304467851062,0.040553035934375536,0.03882597590857717,0.027166209870562508,0.025806805042060343,0.03525064838124781,0.07448536237761294,0.12159315162043294,0.16619218480413256,0.21918573409106568,0.26673805749079804,0.32331267368344063,0.37302866301537074,0.4269634914762812,0.48506291386964984,0.5326626774256251,0.5894085838629941,0.6475656469872924,0.6951777787950024,0.7518746793621109,0.8083093180145351,0.8558372905127922,0.9012389377302181,0.908102650514448,0.8631692517957905,0.8041758360594105,0.746451084789391,0.6991193000210214,0.6417041245430295,0.5829799709878487,0.5340155366057262,0.4792239053178138,0.4202128759015742,0.367828826038858,0.3179202879479619,0.27194365467326653,0.22673647028429444,0.17943207489153545,0.12599087272602638,0.08417812924966261,0.08233607511065033,0.08177663033028004,0.07299788479728209,0.0986835912123114,0.1371797577543754,0.15152244184532293,0.13676118807121362,0.1068707633898831,0.06919744590914245,0.06034969789590772,0.06992836174129957,0.07026540681130955,0.07873668365829722,0.08685342447460354,0.09874498484266736,0.09692112011600651,0.09021993863951794,0.09341907132355631,0.08696111955111263,0.09588125848203033,0.08559937866848388,0.08495594381526361,0.08220869939028885,0.06809901679786234,0.05604031701395229,0.05445577106981547,0.04332056860547118,0.05206066595350034,0.05534795537815507,0.05515032937454567,0.04589316084274486,0.040581813823970414,0.040349651304407264,0.028610517895114818,0.01655690400134846,0.04274899703511492,0.08270554146991271,0.13045116945585766,0.18218382317926451,0.230462774998335,0.28594428560469654,0.340890998798014,0.3897317506627811,0.4484027116103655,0.5034276760647227,0.5513545321584892,0.5912265931467307,0.6404563663354446,0.6954742766430635,0.7441995914916317,0.802839772823789,0.8619301934664536,0.9210113874228099,0.9757460777705003,1.0,0.9760380262605808,0.9297953053894483,0.8719119128284305,0.8252053548169438,0.7912078372075273,0.7388255165268403,0.6797855627414942,0.6228361321169222,0.5752920256937579,0.5173126066760325,0.45837387073573854,0.4075255569519092,0.35479291482317654,0.29780607127762737,0.25093000704810464,0.2039483990819746,0.1527541132941379,0.10362154158031256,0.053734863636285546,0.03404964269852018,0.040420664031922016,PM
0.06121846982780754,0.06121849840191507,0.06233915980791416,0.077898944706289,0.06222012173432567,0.06121846982780754,0.06121846982780754,0.06121846982780754,0.06121846982780754,0.06121622377234193,0.05843209264078908,0.040258805098479566,0.02340686319669283,0.0184263966326208,0.018614092126099546,0.03258127680754885,0.05401195419675986,0.07525023104757134,0.08259618132909141,0.08261559224147685,0.08261559224147685,0.08261559224147685,0.08261559224147685,0.08261559224147685,0.08261559224147685,0.08263379557598904,0.08993647335398514,0.12025463568204975,0.15441695302204428,0.2096387754903657,0.25646488708875026,0.3168743341949689,0.3637558107801562,0.426289410856453,0.4831388577480564,0.5338811228516782,0.5979918611137331,0.6600288438496196,0.7070239612474976,0.7696726640656357,0.8316063272698018,0.8786572459308677,0.9384301040489231,0.9586386813112839,0.9368781864765627,0.8838717835348073,0.8304379798971877,0.7764178128946049,0.7121107735972836,0.6488510236765959,0.6011107807344538,0.5404286538552694,0.47607091380107924,0.4118652590704852,0.35885050597401147,0.3043435041241116,0.24019215996625487,0.18735448385623954,0.13283068853192814,0.08033554845021307,0.04378074473951621,0.04901482019849812,0.06107788464107422,0.07053363128173906,0.08243880978466978,0.08261559224147685,0.08261559224147685,0.0826168780763048,0.08600238774577784,0.10258865517447058,0.09009390941478168,0.05843385299048265,0.026255876344909446,0.0,0.007020895456452347,0.02195052656068963,0.04881280566288826,0.06107289511014047,0.05967059842995592,0.04250459936608442,0.039822242736165414,0.039822899940633594,0.04368861168589966,0.060203804894656265,0.061218265046705245,0.06121846982780754,0.06121846982780754,0.06121846982780754,0.06121846982780754,0.06121846982780754,0.061218038835023414,0.05946968005195341,0.042058449796299247,0.03982199509390272,0.040610197433841755,0.0582432720353423,0.07894605031240243,0.09401505197684124,0.10473793966453826,0.12182159646647461,0.1254045720686663,0.1254098370688168,0.1254098370688168,0.1254098370688168,0.1254098370688168,0.12547752914181576,0.13736833602401743,0.14762364360542835,0.1698594320822715,0.20599371661205668,0.2488392714416654,0.2926639873003487,0.35398464548384956,0.418340638426157,0.48269982623511787,0.54611293101468,0.5928303184337005,0.6543803612542862,0.7136366996691987,0.7621597960312605,0.8250772221377196,0.8716028945311565,0.9323849371885635,0.977744751377569,1.0000000000000004,0.9739906550924222,0.9333380176610269,0.878177388254938,0.8269869535647412,0.7630739878798845,0.7144377078908453,0.6553848380545317,0.5910280028470702,0.5267061012242675,0.4709274960105634,0.4292211681881146,0.3955408030675307,0.333469946865145,0.2778881370413302,0.2260309770069986,0.1647012053344845,0.13060192300537077,0.1393487657101362,0.14679944383910604,0.15326362805713822,0.16791349985013593,0.1682040818961572,0.16820398664913316,0.16754528797697477,0.15325451811316793,0.1662562548710289,0.16749328178980738,0.1478260530343838,0.11642081107611268,0.09455382496940867,0.09920946673613695,0.12556644812456996,0.1449655453004568,0.14890037046240412,0.16262193598257246,0.14759535946000124,0.1468004869044628,0.1428979535121404,0.1261762252299934,0.1254105418967968,0.1277498970440063,0.14510453548617175,0.1468065427767553,0.14680695948248745,0.14720252695920566,0.1610275968644732,0.150693321529769,0.14577841086539012,0.12924278214290297,0.12540265532326167,0.1209048953936036,0.10358982686365348,0.08631126052486016,0.08261802104059646,0.08543612098412723,0.10300479194008538,0.12022188647121057,0.1412029056626145,0.15563786412984948,0.1635998957566418,0.16330521591807523,0.16318288473796372,0.14739365277544225,0.14663507163166756,0.134673609299226,0.1139846786739116,0.12023656829974483,0.12539968613505126,0.12871209183964893,0.14891775139738472,0.17995679236440232,0.2232937672553459,0.2792299615269398,0.32682627780707296,0.3864723140568733,0.43411797299937716,0.49729906077662944,0.5580495331665665,0.6057520482330481,0.6689794303545722,0.7296270165867482,0.7773861234667199,0.8399810395147491,0.888005061566234,0.9327146438751153,0.9233985017623083,0.8830764282429064,0.833968720036379,0.7716724244128215,0.7246207152014539,0.6626866329103804,0.5983286214021679,0.5356946166300336,0.48871836316998474,0.4266470802858269,0.36228901162940197,0.2997168088472497,0.25281601113851737,0.1908650711168809,0.14037684949700724,0.09032499579624176,0.056476938593008175,0.056135848031531044,0.08184884678956506,0.09429734141356594,0.10393015336360278,0.1040127146551475,0.1040127146551475,0.10373069816960445,0.09016985729104121,0.10082846653593514,0.10398950508717286,0.09637460732860026,0.06577932034037559,0.033965951198768884,0.023528368143343137,0.03935101815776232,0.052302307043687435,0.061167171042442625,0.05907557092587057,0.04118331025556632,0.03980037331044439,0.032017333403735915,0.018554193836692878,0.018502124125778785,0.03139702788057486,0.03979017948546426,0.03982134741413779,0.03982134741413779,0.03982134741413779,PM
0.07763843437369622,0.09887687057742833,0.14060057292180983,0.19044737176981275,0.23994930450458996,0.2956174691074718,0.34523840393947025,0.40173602169790157,0.45548682275588415,0.49997416588599974,0.5416820744139581,0.5995791814415086,0.6501956005522038,0.7054034307583545,0.7627387859975372,0.8119541893343329,0.868077111776463,0.9173338903727293,0.9707526010035832,0.9999999999999998,0.9817110919059482,0.9371897534891522,0.8808841503481963,0.8268558881259651,0.7751433681315738,0.7160696900074688,0.6591228572146852,0.6097552602872567,0.5513085917673715,0.4958004851335265,0.44659373732387153,0.3980576944802625,0.34910562488341434,0.3097737509866134,0.26648060005897967,0.21531308004398464,0.17380517336138435,0.17545959402554678,0.20492288855940477,0.20987857656663755,0.2001777535519238,0.18963387215610905,0.1667218298821378,0.14008934079464486,0.1228078465857656,0.12959625982733525,0.11983771092714934,0.12168315454420164,0.13625683275062195,0.14795591893392124,0.16108298626534379,0.17356890635602018,0.18577489013949466,0.2089854676431353,0.20277423681341067,0.1697051637041913,0.1418507788032295,0.12210142147652392,0.10339247065843105,0.11228942461616431,0.13112220023617538,0.12387758052698694,0.112133136580016,0.13649530707650714,0.151061564188127,0.18286758903416156,0.2317010700909592,0.2770031941100568,0.3328777774503482,0.39211012080012764,0.44967990147786785,0.4988197844205129,0.5566851401622455,0.6080023809929844,0.6582234270702243,0.7075321409192814,0.7562805738370206,0.8106334013445327,0.8544356020826396,0.8671400623846337,0.8291626534383438,0.7831357688866365,0.7401478663000292,0.6901152118540865,0.6311362212661875,0.5719223921962164,0.517468099371418,0.46986918696537816,0.42246378502385196,0.3732340479223406,0.3200724120506766,0.27036327655011383,0.22336142379025303,0.19596855987563777,0.19524859582113607,0.2117411966952616,0.24407925851835688,0.23926291210734907,0.21059813901537905,0.1938187203936279,0.1768431782877633,0.16548034270663803,0.1741220195554749,0.18441503031112005,0.21065160478349498,0.2338273839861833,0.2181219029086161,0.2105544674593507,0.20572215357997048,0.2065763365752129,0.18887908469651138,0.1802530594981968,0.1533686458365342,0.12041766627103301,0.10294366907214791,0.09016636019847435,0.06015513394681027,0.03529054316875291,0.05058274476770275,0.06368621110231465,0.05568335644259759,0.0315786559261253,0.02755052485642362,0.055074300702354195,0.09868460264281231,0.14518988050728798,0.19717450316653573,0.24931957896345547,0.3068005715032738,0.3559305533196089,0.413782746449493,0.46494119812341395,0.5073767438332093,0.553135106511778,0.6075712623216745,0.6580161218060792,0.7074714910279616,0.7631547864217005,0.8026525633502766,0.7922742270352023,0.7484820632697928,0.7110144328038495,0.661703279102875,0.6108108811347328,0.5521353601551924,0.501522519428524,0.4474019918163268,0.3990312055759191,0.35133159581243256,0.29446380246130643,0.2366740146069357,0.18791654984370143,0.14119916787053266,0.12665205401947977,0.13613971285686222,0.15309484034672693,0.17246565585830997,0.15772262868474685,0.12400982865082466,0.09518835951039573,0.05907586299801193,0.05190477663161075,0.0752496895037027,0.06991989341962612,0.07077572002941301,0.09530515350286772,0.12193156898051805,0.1449556094856861,0.13979956159952622,0.13934512430338297,0.12203500635580178,0.11133788260450461,0.10186700841243002,0.06918855238708566,0.046803100396207276,0.018949578811449763,0.0,0.012954458966335736,0.019212841845124506,0.029275897579661425,0.033981622613906914,0.05221220323814113,0.08424728103136325,0.12901223060917055,0.1762578032608071,0.22411408675051026,0.2735023792054696,0.32854643942571493,0.38396882166208157,0.43442843496996697,0.4925553790080437,0.5419669257877937,0.5988374334513467,0.6546156144253497,0.7004736671613723,0.7382499382618575,0.785074919711459,0.8424599298708044,0.8918880765946404,0.9454063953601801,0.9569494611745697,0.9154881314199603,0.8706867785995753,0.8231908229471696,0.7706393700206646,0.7134195915452863,0.6642337885283685,0.6060301645128734,0.5524946035366372,0.5006260111261638,0.450107829071271,0.39991745197639106,0.35234499796885044,0.3021398377686835,0.2500432098369758,0.19879281790556846,0.1753261562865298,0.19189766791185092,0.21222378346600856,0.22032169817684655,0.21118685389770575,0.17723724705273525,0.14699281618750804,0.12208762356989067,0.13226738598699161,0.14292179270220395,0.14076750940767568,0.1569158511800557,0.17189227780836291,0.15597222734991667,0.17317242027389956,0.20600951263505318,0.21247452529531974,0.19827527037049086,0.17147790621549386,0.14800303286001726,0.12160389942726968,0.10118651144982027,0.10028241515718217,0.07121099437545175,0.04324232409023021,0.046997157999134176,0.05757025030358842,0.07397930889219961,0.10275669999692805,0.08915395007026006,0.07973787915892117,0.11102251663989171,0.1432535417776395,0.1888081592386397,0.23689473481436685,0.2945642981186325,0.34641404099476225,0.4002966669631969,0.4542064567322044,PM
0.3234843494944565,0.2940587900194326,0.26470975366088634,0.2324874341950306,0.21714632506945597,0.21389508640930643,0.2078091188774508,0.22132430838631134,0.22983454176157825,0.23435114664706747,0.23037212615115965,0.213911504565944,0.2054219869960866,0.20009532611031255,0.20163234938128516,0.21127651935987257,0.21728004773543097,0.23468371472396543,0.24332641023323187,0.22414661489594512,0.19674798766669677,0.16694537620066885,0.13535495033669143,0.1026839615230436,0.07139911427170886,0.039935862251638476,0.008951791708248669,0.0,0.02670419765164489,0.05738060390227229,0.08662833326207886,0.10822283128295707,0.12209291375424336,0.1420529938932663,0.16093235389550176,0.17663683123938523,0.20378084271391617,0.23353449718544705,0.2652296099445802,0.3003791064175533,0.3365426581437788,0.37437287386595963,0.40999644341502306,0.4499616802851386,0.4879258755842312,0.5249870611960884,0.5658117351298667,0.6065528827426828,0.6429932454972339,0.6816424398271771,0.7225463560975464,0.7633452596286324,0.8002284382802684,0.8383892887283327,0.87925499941166,0.9175323308861373,0.9542831386901206,0.9910838192829005,0.9956505201591429,0.9649083685033303,0.9247101285577112,0.8852242728536276,0.8493974842395947,0.8088934238863094,0.7679712201811119,0.7276012735981633,0.6918920439602229,0.6521557540000124,0.61123613351043,0.5703184211436433,0.53078161887939,0.49498976117307525,0.4545012806431906,0.4136768386089721,0.37662409453887624,0.3404213760281748,0.30719988255172426,0.27610575556907724,0.24495645776611286,0.22575749870058848,0.21368763275601876,0.21104684485326863,0.20833564684994987,0.21075691714788725,0.22263631175583642,0.22353516852238242,0.21785459353061276,0.21662831427664886,0.2241213289902123,0.21831188276216118,0.2067524722653401,0.20337007506197036,0.221644999950806,0.2355080623049005,0.2262146177360288,0.20707751835714838,0.18034952395999204,0.1508021647849639,0.11869585866339516,0.08697669967430233,0.05358235221230856,0.030576251646948882,0.047615721954976986,0.07767816256376359,0.10493542740789452,0.12929859183426828,0.14990069251769145,0.16566938046410284,0.1723605535703684,0.18940753546208267,0.21844438881825046,0.2532047110065768,0.2893053839917944,0.3261200667575431,0.36409750623330506,0.40455020532104446,0.44034206302735923,0.4798788652916123,0.5206503242975321,0.555164367701077,0.5831953973121279,0.6226968209875935,0.6634014239466767,0.6996883263605213,0.7385206496461686,0.7794291536696386,0.8202063964533263,0.856923519143555,0.8952674985473251,0.9361293100857934,0.97409318781747,0.9999999999999999,0.9827850636104732,0.943264360774361,0.907555600222759,0.8678193102625488,0.8269057899165831,0.7874691475677077,0.7516074280459567,0.7110877625126567,0.6701650748800799,0.6292421989289344,0.5883277645195498,0.5491415219591179,0.5131051478987753,0.4725074564654034,0.43158470808490124,0.39070900749019566,0.3529205384101285,0.3177926290746883,0.28583901189195726,0.2546164604486826,0.22460203388681343,0.20295292906801599,0.20070546960210056,0.19158035324073042,0.18918780804909752,0.1924087232458428,0.20204441207346246,0.20023127128535745,0.19799026711220125,0.1869689896594383,0.15805884534130799,0.12341628445634878,0.0912935556375235,0.060565389287690174,0.030985607388451908,0.010791683361848325,0.02521250765948002,0.054771875325665964,0.08390210698727418,0.10969565632368383,0.1334676549681567,0.14800455632892062,0.14756340563806913,0.16075952370076163,0.1840041935727491,0.2132567640047568,0.24793986613855534,0.28341056529008013,0.31985683731006487,0.3579562543129188,0.39884640732398535,0.4397692832751313,0.4806737178745383,0.5192373136209437,0.5557653098431382,0.5965039270232829,0.6373894866764452,0.6754184490236984,0.7124180847678468,0.7532385145796036,0.7939868748480629,0.8304825895897486,0.8690706133638143,0.9096478158653757,0.9456282923453855,0.9773120725667371,0.9708900271300968,0.9353345144866828,0.8996506219143393,0.8592283352115798,0.8183916899733045,0.7817565693309022,0.7538022016646476,0.7265400281940625,0.6992579651236434,0.67158877784294,0.6370187226653744,0.6094821256355588,0.5742980487514057,0.5334826692032532,0.49255981906997703,0.4518111432745723,0.41523444980524105,0.376743045806858,0.3379306764364406,0.30224701778475815,0.2689359282504701,0.2397416129705786,0.21835951735127146,0.2189668039275322,0.21828162199998513,0.21087907864717736,0.21737022721122823,0.22458423423374174,0.21900945182900078,0.20848600441656562,0.2042573896250538,0.2143209061343344,0.21443376440726947,0.21290637607051954,0.22305481693142715,0.23084361396866326,0.21634404462541068,0.1909905004593916,0.1673462970642562,0.13563610759779,0.10296668318399205,0.07454250697614972,0.04848529291199011,0.029240549937573412,0.04662133142068381,0.07376473750704882,0.10042273249841471,0.13131789964851814,0.15412452420115585,0.15480605504428235,0.15975556776660105,0.16596148795028498,0.18424675572800953,0.21485870814660812,0.25041434548201746,0.2858902488047145,0.3225718567617638,PM
0.07390221499517668,0.06359680612006224,0.08135247859225725,0.1211986254646944,0.1461807020791106,0.1307826583350633,0.09789306080855109,0.06174007910931323,0.0322366938327634,0.03662159898033002,0.07029016176300207,0.10623952651056934,0.11865055624896925,0.14570679101504425,0.17229830331829055,0.1853912966629654,0.18928404681993705,0.20339711866912902,0.2041151694159038,0.204832425232508,0.22371026404013294,0.23904886072336273,0.22459095169521115,0.22060484047568973,0.19748866063971082,0.17707726439406368,0.1407484604801459,0.11509615027695164,0.09357582116300822,0.07974774728212752,0.07423321214747025,0.07398603906534928,0.06265467687326787,0.055825232966072225,0.06769791539550729,0.09091728870556848,0.10401487317749858,0.1214734768233936,0.15502868915599022,0.20023095536436664,0.2594153470076792,0.3112739990008828,0.3756157686355093,0.42734259111141926,0.49085623527524946,0.5504432956599463,0.6053118513573557,0.6712687390110119,0.7270201273934505,0.7856755835213112,0.8514624574501233,0.9042142902717005,0.9652939553165005,1.0,0.9804346769837444,0.9249734564318808,0.8730142504071416,0.810089288630639,0.7499894409801637,0.6956206125556967,0.6295123154667048,0.5649272718787,0.5135643907960263,0.4489605893344182,0.383773806670892,0.3320680698224998,0.26998197178320815,0.22573979291045632,0.19146310371217856,0.19796504343554577,0.19088404192095432,0.21806145724505965,0.2332391568783776,0.21173543635197545,0.18676058527265615,0.1577824409243651,0.12039525384923788,0.12999872033504545,0.16091322199476465,0.1837034612654742,0.17097659638684037,0.15953231099104803,0.15252456932069958,0.16520858677779282,0.14509110583095897,0.1330370161984331,0.14466458098082668,0.1312325840733477,0.14101531021951352,0.15839517785368162,0.181435935286697,0.15812884199647392,0.14664098027733807,0.11949740067581249,0.0993651133763378,0.07493128977386121,0.04787225640434878,0.03713496380369463,0.03710062288729565,0.03674168351970453,0.024453011699611782,0.02249134281960652,0.04776422820458803,0.04960611053846575,0.044248825933785874,0.05725669646411902,0.08818920813399789,0.11772371338672727,0.15999571164002369,0.2150363373788351,0.2680136470849459,0.31926525737692746,0.3832492257239921,0.4486369549398397,0.5004187225847359,0.5638015545427524,0.6277629692976308,0.6793441674495542,0.7442102353622375,0.8003235440085068,0.8573641563164491,0.8889637230156824,0.8669136767117758,0.8177683203930339,0.7612651567004818,0.696556606678489,0.6451004143416013,0.5808316784168084,0.5178087950344716,0.46578565056148014,0.4002759817546546,0.33455603085335195,0.2820279635650169,0.22784907730815718,0.1926549460810132,0.1605200964374376,0.14996672554048418,0.1712862212549462,0.17318955800565927,0.1665629994475184,0.14350006140907823,0.1069021958682228,0.09308112264956936,0.09417904324500892,0.10899419263544541,0.11132949570499617,0.11483491785195143,0.12913368489073163,0.1339647797189163,0.14778658257914623,0.1478152560655439,0.12967095788944993,0.11704199707240148,0.12756487834141872,0.1128763290659327,0.10027416239497855,0.08751249329206479,0.05216212432111522,0.023076795795323513,0.000813014578453064,0.013371434912678115,0.018603868857907102,0.02777498776258458,0.03296840217836072,0.028554867576964682,0.02249805416209094,0.018898251897145002,0.0359927719496298,0.057358061686990425,0.08365019900007153,0.11903293095523004,0.16442383921473347,0.22369385327662705,0.27567862664005416,0.33253824767611695,0.38924752043919675,0.45406973736915557,0.505605636814487,0.569657525941571,0.627910843366922,0.6839932010396703,0.7502427019007714,0.8165065242345366,0.8713512241188668,0.8885474825236295,0.8633603358419668,0.8136161585834811,0.7554679138217328,0.6951417554033155,0.6410221169077337,0.5750368737599989,0.5182641725992951,0.4607010645693186,0.39438153895395844,0.3290627620331228,0.2772676991061056,0.21552583265057157,0.1759803443206973,0.13523697377747412,0.13025512685949225,0.1487313516549711,0.1821952012079433,0.17910822588348774,0.15620187167083666,0.11704344061901706,0.09747888757535383,0.1106336657083995,0.12024881164314793,0.12978284864835254,0.12988659673720448,0.12988659673720448,0.12988659673720448,0.1299078996046963,0.1358564576938761,0.14588920173841347,0.1379026996109598,0.14106501590510323,0.1431430140495995,0.1228124464194078,0.09859627517582537,0.05893890361069776,0.03178759413382126,0.017449594219010045,0.0024241585551361133,0.00775801956159361,0.010886078878378669,0.0013386604111369493,0.012194594900268196,0.0007391917429662165,0.0,0.00508042658628538,0.022582202214841196,0.05393521599666107,0.0857474038234991,0.1315462322864347,0.18001766362097227,0.22730257864222692,0.28103219507216926,0.3394349667362144,0.40567333345656387,0.4630552695217851,0.5200162461792055,0.5862824727294731,0.6494566633630678,0.7013593050393703,0.765719272648929,0.8174278971499076,0.8810207552076172,0.9466503850182106,0.9921533171413941,0.9950158451058893,0.9459346375416167,0.8942108435834499,0.8288404985808087,0.7672056980693855,PM
0.739249221645867,0.739271576763171,0.751100535111485,0.7915820582145248,0.7920630091611311,0.7920630091611311,0.7920630091611311,0.7920630091611311,0.7920630091611311,0.7920630091611311,0.7919820445165229,0.767234524006053,0.7393508244365439,0.717331363777598,0.6863007152813339,0.6419721121564699,0.5860706055750242,0.5419088709546429,0.5412193661314912,0.5853453189284572,0.6409272026166679,0.707570268547121,0.7977275191325788,0.884157416265511,0.8535036909275124,0.7901536139835166,0.741451759798208,0.7389006090188062,0.7021880163260903,0.6978191005317402,0.7287762233426598,0.6831440346669293,0.5965932206458149,0.5077840318627498,0.3916712802486302,0.300855198253533,0.19262933258096826,0.10735167912001664,0.010605497641033246,0.0,0.03977478317728789,0.1470369989573843,0.23961744038638244,0.36605461365259373,0.45207875255763064,0.5520135250185909,0.49383665545847855,0.4769452509705303,0.5358826978304272,0.6199864599272313,0.7432763115954941,0.8344483323325438,0.7909673658758294,0.739157466196259,0.6944589042110181,0.6744547886763161,0.6350185135016311,0.6336216668113437,0.6336216466153353,0.6336216466153353,0.6336216466153353,0.6336216466153353,0.6336216466153353,0.6332963553626119,0.597594078712218,0.6119669883176382,0.633728205639704,0.6618076818918528,0.6863584102377374,0.6864750524410184,0.7002582338645009,0.744426633744764,0.7882611013718339,0.8118408405299906,0.8754239132715078,0.8976608478107337,0.877878773950636,0.8372859444737664,0.7939987595406279,0.763822343133322,0.7399602697881136,0.7744703574720262,0.8395700147321747,0.8926666345012748,0.8976903579963729,0.8936641926708333,0.8502363171941152,0.8418824952019559,0.8011978800459456,0.8367625831395813,0.8448751648389603,0.844876796676397,0.844876796676397,0.844876796676397,0.844875245622994,0.8369394877245799,0.7950606488310914,0.8277768317402092,0.8448732906494314,0.844876796676397,0.844876796676397,0.844876796676397,0.844876796676397,0.8448752940934128,0.8370469811845851,0.8008200356643496,0.8415973499046601,0.844876796676397,0.844876796676397,0.8448608544355611,0.8233604046407912,0.7924403465605803,0.7920630091611311,0.7920630091611311,0.7920630091611311,0.7920630091611311,0.7920630091611311,0.79206066642422,0.7821891262727672,0.7408719267555846,0.7418374332676141,0.7855834057972295,0.7920621205367855,0.7894943232282152,0.746985202082012,0.7392501345054221,0.739322350860558,0.7563902129820246,0.7500631100706165,0.7392649761305119,0.7357561370474457,0.6926612083130035,0.6712308125993669,0.6082487621030506,0.5687570816150291,0.5402939506145099,0.583030601936267,0.63726011014721,0.7031080050378229,0.7935849977468852,0.8789327409423429,0.8571508239701284,0.7938205489241135,0.7405461578971781,0.6962005805279521,0.6864405163340379,0.6955045506185478,0.7370606703165521,0.6961230898470223,0.6041887001110364,0.5136008996148416,0.3996520364880958,0.3066714358901823,0.19930033548117976,0.11501455436158992,0.05455295719987863,0.0706856557170692,0.17718237311955498,0.2634999978193697,0.38901848872987266,0.4849831954410817,0.5600497909770379,0.5068441441164335,0.47817895373590247,0.530784651170908,0.5885366237913043,0.6602907287697555,0.7518170856944764,0.8343749129164717,0.7946138688030011,0.7419668581726864,0.7342257889732782,0.6811325298198874,0.6354376913403534,0.6336226766117363,0.6404870756763259,0.6763560847837962,0.6360596683352124,0.6353945416269262,0.6763560847837962,0.6440797450504938,0.6336318159492667,0.6336709120042539,0.648544969243801,0.6860589131052066,0.6865273497613256,0.7078163666642752,0.7505997134741573,0.7917885653945866,0.8218549077683033,0.8449511401817702,0.8728759057603384,0.9358114545418932,0.9570200388585377,1.0,0.9903323667992723,0.9460609460273393,0.9004900886052454,0.8762751119848371,0.8452648659651807,0.8412059431038372,0.7980021540492004,0.7920637968054383,0.7917180141496853,0.7551000684821361,0.7409825068993783,0.782553272499575,0.7709458210053093,0.739665802850821,0.7210449227297353,0.6871669238781131,0.6864354341306012,0.6864354341306012,0.6864506808742714,0.6971933304941889,0.703641238130098,0.68784154663655,0.7266654443870237,0.739246442675185,0.7393497688731472,0.7623165675559243,0.7915523233425876,0.7554478188691345,0.7409211620092115,0.7820887598146022,0.7920606502674126,0.7920630091611311,0.7920630091611311,0.7920630091611311,0.7920630091611311,0.7920630091611311,0.7920630091611311,0.7920630091611311,0.7920630091611311,0.7920630091611311,0.7920630091611311,0.7920630091611311,0.7920630091611311,0.7920622336344305,0.7858322823610191,0.7418708943465493,0.7161643528751984,0.6525106912041831,0.6337002692775275,0.6360711111240249,0.6875749501562094,0.7748781065290924,0.8423759863922236,0.8934157409015189,0.8504180494995186,0.7885177311555722,0.7428699215621606,0.7351879024064534,0.6917369922112844,0.6864361773436922,PM
0.08890481146793983,0.08809894479430991,0.06851559101847915,0.0433874821734328,0.01955130416466533,0.017473181204046284,0.031097379882834897,0.05342292634654866,0.07007485619591192,0.08622633180083428,0.09851649561409026,0.12001560987864712,0.1474207395367806,0.19153216283666064,0.24529831993924622,0.2981204673334239,0.348780502959662,0.41225362657938636,0.4676041391369363,0.5248579443474166,0.5789107008607677,0.6373532554282595,0.6902996342889707,0.7502801492004143,0.8109800107692982,0.8632637895611577,0.9148637049623254,0.922220526628601,0.8817386087752905,0.8327251764286747,0.773028679203339,0.7118922680553621,0.6598790551590139,0.595137981092241,0.5298652034768545,0.4645931267825789,0.40117354380169123,0.3502874862068155,0.2866899260062197,0.2214179551113573,0.15640631729846488,0.12121477281868298,0.14743767184536516,0.16046021465877303,0.16919758784389538,0.17915165010246614,0.19299296375756914,0.1975872444510447,0.2118518542787875,0.22405205892707736,0.23021074905982708,0.2045004874191041,0.17965826392861528,0.19083573464011616,0.19639603125397942,0.20064400940594096,0.20482776370199662,0.20694027174428298,0.21425859507721423,0.21509929303373854,0.22882923034855418,0.22683156704697538,0.21436946697219694,0.2019529826864086,0.1766550773275979,0.1444154818315373,0.11913291281417804,0.10228251806945154,0.08974383996165836,0.1025095042301154,0.10769779551882586,0.12166944548926928,0.12909676749468124,0.15471464578802507,0.19071543229261323,0.23211409104813363,0.28610537950731363,0.35126089702011276,0.4154355323964696,0.4666107977601599,0.5288554141837829,0.5820539421541353,0.6413314706910604,0.6934428755823383,0.7544117655366138,0.8142938970595286,0.8674372732813542,0.9294869526028164,0.9785367565273715,1.0,0.97369162604683,0.9277371136508616,0.8667577519145007,0.8158619597870653,0.7522415660744417,0.6869698960466599,0.6226492303702407,0.5714359219401777,0.5090656538073293,0.4437950715297627,0.3785222939143762,0.31324951629898967,0.24797673868360315,0.18325492016574474,0.13722137142549196,0.10320624077597129,0.12271183153395349,0.14201422434636335,0.1521070851227564,0.16048335531672775,0.16054789808934444,0.15478284210705606,0.15593688730429323,0.175309793951004,0.1672790390935548,0.14255836536426392,0.11315346986769015,0.11097781342895496,0.13626159749727718,0.15690507028290845,0.16056353996382366,0.16057164142467872,0.16057164142467872,0.16076558252144313,0.17145853215766804,0.17986672996944142,0.1941758649680465,0.1933997860135266,0.17882220282898675,0.16349077834752235,0.13695106976467875,0.1043802742200759,0.07203429799554151,0.0536790932553286,0.05672347767833097,0.07027150703576845,0.07252696999590125,0.08684514591478765,0.08940841597779148,0.10734970783538778,0.14470265370294966,0.19370515899209506,0.25813231400125813,0.31650441572459576,0.3709803335436437,0.43483658588107454,0.48594525145399503,0.5470506521863725,0.5979481991974178,0.6607187890917694,0.7125848466454254,0.7739390353452129,0.8333056771700456,0.8759762760717575,0.8895405148242488,0.8567472234005256,0.8079216839224297,0.7565534445109332,0.7044255638096937,0.6642472093722818,0.6011911416678934,0.5474164466259399,0.48824496862673517,0.422997717198057,0.35772493958267093,0.2924593561316673,0.23054038327374826,0.17903407076732458,0.11463895762698817,0.06664551574327193,0.08405192453659271,0.08889408911057473,0.08890508257893615,0.08890705309300406,0.0915701933439661,0.1060679616822755,0.119547046952718,0.11630062239417382,0.08832879186628073,0.05226506156549915,0.03767530171799249,0.051664330002289205,0.05309148342640757,0.05859400300339157,0.07061685705037624,0.07181766976865633,0.08566298604938449,0.08889828535676081,0.08860722155241074,0.07621757904919635,0.04472543097491144,0.015195020041793406,0.0,0.0027777534342128263,0.019176227879200702,0.04754986115545101,0.0604378042285143,0.07084908514895671,0.07237738157355311,0.0945726109570213,0.1338484233346362,0.18467859841721523,0.23534573503894896,0.2931412546051355,0.3459365093876774,0.40448418600391944,0.4583969249735014,0.519932705375517,0.5715014180147326,0.6315329973512589,0.683924676066622,0.7430920479684575,0.7918267753974146,0.8206365731052903,0.8002992294514626,0.7431425115611354,0.6899406519980502,0.6334309644356892,0.593921112101035,0.5432968978972381,0.48284849280674225,0.4175875946185248,0.35252272313410016,0.2981869189436974,0.23965470391650667,0.17441312386841545,0.10915371290122167,0.05329441303828597,0.0678767261808102,0.08842963863691677,0.09162656841580796,0.10610763672671686,0.11969534678390614,0.1248328035673798,0.13470074800567522,0.15863609925834954,0.17751512369619604,0.16476650567871776,0.13297122935409078,0.10867077001541814,0.106822819959282,0.10682279350942858,0.10861541859138013,0.12707427985921838,0.1420064148015152,0.14434237647993786,0.15873491596144662,0.1605707983356055,0.15986528157585544,0.14135098568430804,0.11699857078886522,0.09331560947384787,0.07325562167210409,0.08641821415136519,0.1023178863039309,PM
0.2377123510939585,0.25447109372850196,0.2554772073203635,0.24389754949196263,0.22009226019670702,0.20049458169074397,0.19905498885437112,0.21602017965964082,0.23992407954280726,0.2552916376593064,0.2558215084723896,0.2544513678591418,0.2398080821442079,0.21497294825812086,0.2238388643972753,0.2435493805460469,0.26510299436502516,0.27107632008292404,0.27198062569363346,0.2845585437527034,0.29700238279987,0.3000883724519259,0.2816782096894741,0.27165961147938233,0.28565874099952415,0.30106916093544456,0.3008929606181141,0.28771087650036486,0.2674077359880096,0.26095730710185405,0.2773507947571465,0.28977631629161626,0.305879690386039,0.31307446068197464,0.30224982441917136,0.3108870497675089,0.3136048132236602,0.30217473957171803,0.29585677923446774,0.2784408892262342,0.2541946179463692,0.2418454649487929,0.25913844689506327,0.2781962453322393,0.30689263334735983,0.3265160368386275,0.33218893788207415,0.32730710708918576,0.3149083077122721,0.29887832250457835,0.27610523058187075,0.251236485171614,0.2373452857748921,0.21228433658970713,0.1822151478452727,0.14556133757115575,0.11096061863129725,0.07365611770962088,0.03857228618921793,0.010487867585929678,0.0,0.02032469558482619,0.032603430504361874,0.042490741259731735,0.05512981786425586,0.0736792375440789,0.09984073769135282,0.12087253311258905,0.15250880236758002,0.17811980310717912,0.20634318876327695,0.24163891559843131,0.290377475513413,0.3400498050539107,0.3782300151218738,0.4268492920329341,0.47410383031390335,0.5131676353501926,0.5633241201819907,0.6108013341229555,0.6497487262620831,0.6998008019786948,0.747498837932008,0.7863424476272134,0.8362774837753992,0.8841963417410601,0.9229358821639786,0.971251429711312,1.0,0.9980535937512753,0.9663724533868168,0.9234170189829203,0.884154433270921,0.8344794683816925,0.795350768090199,0.7481697690903362,0.6995115470461437,0.661347563787118,0.6116965653241779,0.5611102155471985,0.5111794756606671,0.4723416716506721,0.42496818121318913,0.38525826247713013,0.3389301485161891,0.29795060149377894,0.27242348914823333,0.26780436479970904,0.2563569572397566,0.2538511618272783,0.24144745085767827,0.24053871847441277,0.24067545555366143,0.25209181467355535,0.2763834639799847,0.2863830015077582,0.29539687127915437,0.2893506390287972,0.2798565506808113,0.2549053666302661,0.23776504812950172,0.2165328531884141,0.2101400406829903,0.22064582574720637,0.23974005826713674,0.26484773781347615,0.2898243721315845,0.30818197338743936,0.31501332925008985,0.2954057830907102,0.27011643304855326,0.2448210594190421,0.2202600562058148,0.22123260727221528,0.23792950630659027,0.2578426838045833,0.2707869713508626,0.27421987839492834,0.2947205620574569,0.31172113124192125,0.31562075841822335,0.3014949054024809,0.28727812916649986,0.27784606422634717,0.2595505728251921,0.23519682100714778,0.23154459019135354,0.24122070636370951,0.2580387903661263,0.27079408697875396,0.2710739908743749,0.26545313187446506,0.2661437123326569,0.27405450920151875,0.29529558503497766,0.3167936485788916,0.3307138980879749,0.3204947306927548,0.3001194511909797,0.2778962946419923,0.25799690685928134,0.26538729014746787,0.2876315530269844,0.3011748485140746,0.2910036446720592,0.2967030785350948,0.30165797601450484,0.30561183288743754,0.31647728957764176,0.307082605825967,0.2877624653997235,0.27432068573174595,0.2576297474022722,0.2505754311999855,0.2652423374364101,0.2715949408049565,0.2831370505851112,0.29556390082798156,0.30163825158030466,0.30136071051162316,0.2849221960983064,0.2563666509002709,0.23106805340699488,0.2057796074811784,0.17978241057790534,0.14250598815563098,0.10846499805849064,0.07973487026243431,0.04974905626187631,0.030729770068850026,0.013780227463499273,0.0377589616761842,0.0642952106700192,0.08958222978190333,0.11488429212133333,0.1401689950877003,0.16157413043834135,0.17408240326235624,0.18280481236199408,0.21936744915585482,0.2695461189042794,0.309493852958997,0.3556031377438149,0.39688921969623436,0.44162948249458145,0.49207404057642234,0.5336698618763984,0.5781086028741842,0.6279188780943867,0.6664408507052473,0.7145479776419474,0.7623540605312171,0.8011457790044605,0.8510222953684337,0.8990515643402683,0.9377307960644785,0.9812472234875957,0.9881494166525795,0.9648481298251768,0.9255012254114847,0.8866253182684325,0.8393340103469091,0.7907342060024161,0.7525458825299833,0.7028603405566738,0.6522739812657328,0.6024027332075712,0.5649297446203381,0.5378210728664583,0.5070555316244225,0.46158378697969127,0.4231583816617084,0.37680648419045104,0.3421009064401308,0.31456178580369487,0.29556385091611315,0.27470860247353013,0.278256848076083,0.2902234021259775,0.3013191927334993,0.3016472013675848,0.2963378469879938,0.2858777702852362,0.2701850103913328,0.25971372387405767,0.2706974951593648,0.2700641644582751,0.25766817977602896,0.2444092890371179,0.22153759241245607,0.22470815358692198,0.2401065261709041,0.25103882221819607,0.2699604153858943,0.28568858749016757,PM
0.3357622100754454,0.3240413850190862,0.3267917540712868,0.3363413032343523,0.3345189385164793,0.32108130074367525,0.297181852402153,0.2687802702031403,0.26092967110664755,0.22429533832593496,0.16904977007229194,0.11422792240455903,0.07803124078646517,0.03380589226048469,0.0051698879635040385,0.0,0.04589170131473441,0.08538300347612982,0.12774711589091403,0.1811053416347952,0.2150227358473149,0.254701214451865,0.26185622900010586,0.27737051988072103,0.3027642889164919,0.3269845044822115,0.3545984243316189,0.3561831875039858,0.33526250689089254,0.32186802339386267,0.315659821842349,0.30660329059555114,0.3064246636643717,0.29656694892219937,0.2571758379818583,0.21268636218025216,0.18276846862819252,0.14347439950019503,0.12858039885018835,0.15515670931771108,0.19694611209954171,0.24879851202160053,0.30445478946992965,0.360115838447967,0.4149290406007302,0.4587270842615654,0.5120507453409724,0.5677101279968833,0.6233715145957439,0.6789515009898262,0.7274403698455632,0.7753684793947735,0.8309648675191506,0.8852523196739668,0.9285533363807246,0.9522772346207034,0.9058271520862227,0.8619761901459131,0.8089589553340626,0.7637712634719,0.7123703053858912,0.6567211258665346,0.6010597392676744,0.5461689034661434,0.5022936593887395,0.4568395621767669,0.4150152613850051,0.3791405436595672,0.35512223905163376,0.3506164742161664,0.3387649367565646,0.33656710723275385,0.33656260686145156,0.33400756820070665,0.31760218098844417,0.3067744817441387,0.30652524000247316,0.3140114156305662,0.34190350865656116,0.3702715700126591,0.3968032194231541,0.4267625866178433,0.4336970486244107,0.41636224289411494,0.3978379318061269,0.38304862244526516,0.3817202146613501,0.38126079593963524,0.37006640510226774,0.36667668509241835,0.36666804660163566,0.36678724520376305,0.3752387829688848,0.3759341705949897,0.36935255249642607,0.3809342471446069,0.38171964106898404,0.38171964106898404,0.38171964106898404,0.38171964106898404,0.3817190747372803,0.38024425081222324,0.3602087630535582,0.3324630636298318,0.31012250881871806,0.32084839831153955,0.34335165477183827,0.3650291379976318,0.3955361209771917,0.40419047616754833,0.3821627166502224,0.3677172236602009,0.366668482241407,0.36666804660163566,0.36661943336280167,0.3547280745888126,0.31478768940821,0.2750035811675522,0.2498667300726618,0.2141538413354649,0.1918044893470956,0.21863876588265274,0.2703110078532456,0.31395968641067906,0.36826209335117266,0.4239225723671751,0.47829034743834464,0.5218158669165978,0.5758568149095296,0.6315170833663091,0.6871784699651693,0.7427299908995186,0.7902336641475141,0.8391511239801548,0.8947724218932627,0.950423765713718,1.0,0.9861435978593307,0.9389257470911958,0.8907278893806589,0.8356102000507639,0.7911340507548723,0.7388764278513937,0.6837963797379043,0.6395399152675969,0.5869742586738851,0.5370292644961907,0.49209544850207054,0.44873759337380337,0.4013753738746728,0.3715891750949605,0.35285357320106225,0.3514280149155087,0.34221941511395393,0.33659865988986937,0.3355172351647364,0.3229882476721242,0.30892798875072236,0.2953087890887849,0.29278652501544356,0.3077632536290822,0.33222328622202246,0.3551151521950868,0.3849073101743703,0.41483334300570807,0.41490275534512655,0.3983060871154751,0.38021004275853265,0.3658946309827571,0.3536192769557345,0.3516173633474766,0.3516164521342877,0.3516164521342877,0.3516164521342877,0.3516164521342877,0.35205307839031175,0.3626565052467132,0.36665994924960277,0.36666804660163566,0.36666804660163566,0.36666804660163566,0.36666804660163566,0.36666804660163566,0.3666603008027205,0.36238609705925207,0.34044911094737174,0.3183762393093357,0.30916598987779365,0.33117182676478496,0.3589797056047912,0.38679488511510174,0.4088119675834916,0.39885927453467307,0.3775008279232286,0.3669409957179277,0.36666804660163566,0.3661003518739441,0.3543450549207008,0.3324246517558702,0.290649598026651,0.2532300757442396,0.22622566630089835,0.18689741470043408,0.1749345175602266,0.21542258766096456,0.26296136466314346,0.3116979666978956,0.3673173310688549,0.42252101966935474,0.46749409124546837,0.5192564117610905,0.5749112829969478,0.6305726695958089,0.6862340271520186,0.7413253621693716,0.7858456968583187,0.8381698597795384,0.8938280081227625,0.9494803309546427,0.9995457485162316,0.9871892346306566,0.9434466243455297,0.8917511046358224,0.8361529054790244,0.7880708323760306,0.7397434709969715,0.684249645089881,0.6365370845159686,0.5878483075304808,0.5377068270250862,0.4917584656700562,0.4480831357426398,0.41086970625827757,0.3737011901072571,0.3416512223759587,0.3403965306484471,0.34164545838185667,0.3271298984734412,0.339889433068878,0.35120803522466915,0.342948362859977,0.32546876725345975,0.31097058387584786,0.29483748163333656,0.3043924952734689,0.3194720402681499,0.34237628178852253,0.3701650628520734,0.397988342016403,0.42232125671337384,0.4171579907865861,0.3973342802888329,0.3838400470715828,0.3817212574980906,0.38171964106898404,PM
0.15984984857362483,0.1539847826786258,0.1292169973948627,0.09456293696949647,0.0694072585871035,0.08125345471524348,0.10226949740360625,0.11220877604397694,0.11490564267036385,0.11726604587095513,0.12075725544277627,0.1359013409123584,0.1502768868378055,0.1512129553717978,0.15117281448975795,0.14675476491135497,0.14669130158987942,0.14279490522948524,0.1392789894509523,0.12455120564676658,0.1010230143625046,0.08186448060388063,0.08369117635666568,0.10241030319445366,0.11186004458595722,0.11332957299833768,0.09945055520877233,0.0957599840175285,0.09584713126072475,0.10417771529167585,0.1335612082704749,0.16939746430715608,0.21340222104124495,0.2602580551956497,0.2992198694610251,0.33967204885694513,0.37092984462727396,0.40883193499973935,0.4543254081554118,0.5013803112423274,0.5406018840572651,0.5858890655892977,0.6330041889061262,0.6724128108688341,0.7174527230231835,0.7646280665699259,0.8043041439223455,0.8490158829570633,0.8955502305945326,0.933883304121548,0.9593767090990657,0.9431423955274283,0.9036331404596372,0.8618255107135624,0.8230111803162925,0.7770471199945852,0.7294968975444023,0.6819447132238647,0.6343925289033276,0.5868403445827901,0.539288160262253,0.4917361363686126,0.44471501673060687,0.40536208186404843,0.3601696659844775,0.31262159382900157,0.26569665575473156,0.22659453140308194,0.18726057006898467,0.16163485401933064,0.13225073029323475,0.11825624238607646,0.12518787488251926,0.14295788012972466,0.16077144080421513,0.15353322862538987,0.13155519368403423,0.09633662370971718,0.06927540650129527,0.08327741513730769,0.0953191780136502,0.10325481803074821,0.08757684824950251,0.07482048334418101,0.07357430001659293,0.07699372607066124,0.07655492474324488,0.07353161891285631,0.06839568280613961,0.057136859885717595,0.06481925065884231,0.07308046688042302,0.07235778725847486,0.05247675305209465,0.02777798642696583,0.005383997340101088,0.0037816538569352964,0.0,0.014519811302209584,0.02173871178450737,0.02440102854040571,0.026000767961514848,0.02529069738151901,0.038240965585659925,0.053555997476159245,0.08133148243760857,0.11597179895848164,0.15244538180331269,0.18152840903339063,0.2166452671705752,0.2606958430228121,0.2996634969948222,0.34542825554003964,0.39297709359256694,0.44052927791310403,0.4880661523959604,0.5321861456891324,0.572333436747223,0.6196317463625884,0.6640376834351416,0.7039277773904151,0.75094238941028,0.7910790400885899,0.8352301952890666,0.8805649862483611,0.907887476079196,0.9027014850803716,0.8704422305174531,0.8322687071310344,0.7867478790994029,0.7476459784731138,0.7020854012571152,0.6545358604133085,0.6070277279081131,0.5641900975219596,0.5268552783157541,0.495725007267491,0.4510239308018382,0.418764448856652,0.37766231742821055,0.3384074768451353,0.2931275300995877,0.24557872809947612,0.1988639084800523,0.1668348086860445,0.13603073608252414,0.12414107137833774,0.13212200573101063,0.14595667020633862,0.1737150384872017,0.19282592591185987,0.1841845317475097,0.16442999462648134,0.1283791802097074,0.10456842552694878,0.11100862388535515,0.13228634448101628,0.14555864552716935,0.133301274015589,0.1310788754924488,0.13788898525983684,0.13130882940019828,0.14093341485144428,0.14688511244858726,0.13197769390565384,0.13482492107057698,0.13238876461486315,0.1274400831946949,0.11804387932596971,0.10821839944087053,0.09419251121973482,0.06415545525798128,0.040214507564233726,0.029728770838696184,0.034128500176388465,0.043382711547994335,0.05125528513909483,0.05845401346543144,0.06378103363423282,0.07906106968520876,0.09856222268038994,0.12404494429761481,0.1581280815177133,0.19608311929903866,0.2403425772056964,0.27848135117857953,0.30992153740558726,0.34393127306630755,0.3871390068878753,0.4345438748040109,0.47577082597739495,0.5187083974446292,0.5662184458015143,0.6137706301220514,0.661322814442588,0.7087958079773851,0.7504773858055425,0.7816648297566731,0.818468626253327,0.8657055046863749,0.907263993889116,0.949813652721154,0.9908062777013831,0.9999999999999998,0.9763890113178577,0.938596984182033,0.8964908197172023,0.8490612533398265,0.8066848533152517,0.7649118684657747,0.7174457035308717,0.6698935192103346,0.6223413554615276,0.57497901226476,0.5343334816318042,0.49075825312433996,0.44322665707858744,0.3956815826670044,0.3506507145283144,0.31123468406297716,0.2643025835697712,0.22367478656788786,0.1830500089192424,0.15170724806654623,0.14037045623062294,0.1403163317654783,0.15316089225017993,0.17952942045966624,0.17900345637394954,0.15534481512088116,0.12640790527957413,0.09284690008800123,0.08531967623566494,0.11205233735978304,0.13600290840243967,0.1329794848237349,0.12984957959971433,0.13685706180610024,0.1356446933296358,0.1446599559453532,0.1648767743858326,0.17256962267008102,0.16430564300330097,0.16904697688802184,0.1667442161605175,0.15341156562069425,0.14863913634267423,0.13677518595141103,0.11469667251476445,0.08624941946429932,0.06443250532719991,0.06368419027968075,0.07809612677911448,0.08452105864170978,0.07927806067294818,PM
0.16541012969019842,0.17875212972847576,0.19203123349706774,0.17205848608942276,0.14528614177905386,0.1234081963866216,0.09830976693663551,0.07052006504465647,0.046067716844540474,0.03766234609793684,0.05283491936843521,0.06488320649265567,0.06763361088501996,0.06836432705008777,0.08521634370048403,0.09687551082409529,0.08668122748934781,0.0999998666248949,0.12566323960268,0.16304963119727134,0.20145194127749422,0.24249818052413863,0.28829198766047304,0.32783930393647576,0.3749076525980759,0.42229979470312484,0.4624755242409728,0.5050994256964314,0.545014152498998,0.5880090237815545,0.6294131412758874,0.6685002873170856,0.7040183700500018,0.7449501681560089,0.7884346327194258,0.8354272158534699,0.8749176013607474,0.9209917246659503,0.9660612315144843,1.0,0.9989119522530681,0.9643776735093788,0.9174312377541769,0.8705476677253605,0.8311146713892756,0.7848279487479708,0.7370649859163998,0.6893001063140423,0.6415352267116852,0.5937703471093276,0.5460054675069701,0.49824058790461256,0.4504776467553482,0.40439789184498665,0.36490750633770985,0.3179149232036651,0.2744303360238314,0.23291122934925568,0.18867695731330292,0.17571422505533074,0.18401672000596458,0.192672549252894,0.20705940989124083,0.22887719400402307,0.2377480370999141,0.2207884301103893,0.18059965956826174,0.17405708642240714,0.17924957045968504,0.18173986204831616,0.17260664552733762,0.16750433191906655,0.16727316286370186,0.14765514689015546,0.14683236584296822,0.14915856157513785,0.14916996285145934,0.1536556266999758,0.16162426582861444,0.16215129208693546,0.16390299350097126,0.1718525200820662,0.15283859301809177,0.13073701885533073,0.1022955733556481,0.07106807606189469,0.04502282994228968,0.015648883047665985,0.007088501207589859,0.013990819763776363,0.019768494358694433,0.03159677481807477,0.042266148573829376,0.03921459584794107,0.04493653103708328,0.0411738172278604,0.05241036220422535,0.07529139636011939,0.11230934037974616,0.15142130721378777,0.1934535495907319,0.23525656429871744,0.27844751247986355,0.3201378899798044,0.36548699776315585,0.4053324068852504,0.448437990770608,0.48984775864962815,0.5374406724856975,0.582280489879015,0.6206821847813364,0.6572052412078628,0.6967557995114331,0.7430132746327471,0.782380902575655,0.8290130111058884,0.8733517005479983,0.914094414890267,0.9575515260949761,0.9719716308735196,0.9441847456446983,0.8974965321825481,0.8535931900064284,0.8124700285940571,0.7648684232968765,0.7171224223243424,0.6729393819569021,0.6320848021541186,0.5845025346491686,0.5367376550468106,0.4889797551786321,0.44346644182146955,0.4036375937019754,0.35637165321471764,0.30860688679674575,0.260842007194388,0.21307715588812615,0.16555823461492203,0.12657762929859695,0.11384531661905473,0.12470707416766325,0.13653329610538667,0.13851218771076912,0.14962656589202283,0.18248806963681408,0.19390610099993189,0.1759092563898721,0.14226887533500765,0.11529736373729071,0.11756542616837562,0.11813883234110722,0.11588443154300299,0.1197808279604462,0.11204783323698053,0.11054907812729975,0.11855475572323604,0.131545833104717,0.14005562103187574,0.14512094220234895,0.14839105063523328,0.14838341753053386,0.1622544157556376,0.15154304408579167,0.12655673841328685,0.10127098184359173,0.07040529443572141,0.04408482320325402,0.01801448656357274,0.0,0.0050419334671680804,0.02010017499578476,0.027742471536859492,0.040994005276030254,0.03831716462108381,0.036196131287841604,0.043777412502658875,0.03985201314814368,0.060147173413992006,0.09262509991277112,0.13270334806630646,0.1748343858343404,0.21735457949671977,0.2598295306593925,0.3022047148098459,0.3448247132125726,0.38688784155715217,0.4275548463871721,0.471839930825825,0.514814814222035,0.5561695608121195,0.5955523125001405,0.6357668016408335,0.6762450726917351,0.7161434179321233,0.7633664555075264,0.8057585040478004,0.8483452075979478,0.8955132184566579,0.9277530135994887,0.9190358774170293,0.8822395019555289,0.8403314793512253,0.7926718606773533,0.7449069810749958,0.6972173607646992,0.6549399763025057,0.6122490555817355,0.5645410924272873,0.5167762128249298,0.4690166325297227,0.4233145053214944,0.38375396769401005,0.34566845870674734,0.30972980218386903,0.26739649338115923,0.23951063706132536,0.19871381344609018,0.1520966613403394,0.12187036968062626,0.13245202455334848,0.1389671406790589,0.13552861311288056,0.14812382953846703,0.172412358403917,0.19735427513579706,0.20156651283076044,0.17755305779018227,0.14506453190971302,0.14068485048925838,0.15119399584434978,0.1602067456613836,0.14593269470455872,0.1321789929332875,0.12699500525887952,0.13946542205568657,0.13676667168274426,0.12879298687406537,0.13839291069424187,0.1424715902907101,0.14251332198329725,0.14582901292253547,0.15799714373764018,0.14773260047986225,0.13119912268067146,0.10189300787373012,0.07912953217089402,0.053961644681815635,0.025269443674378333,0.028689770509312318,0.045385339621207166,0.04736161143668283,0.055744261801767614,0.059708941063689736,0.0749241963509486,0.07339064800662198,PM
0.24837036683879488,0.21172555821741224,0.1766118488935553,0.13886927914915592,0.10186275244337972,0.061759808529504134,0.04082157421241517,0.05721362513020667,0.07919365130319056,0.10787933928279658,0.13220298694886345,0.15332730050242915,0.17157980133832318,0.17834804586298292,0.18968128622770752,0.19678769082179803,0.2049425792288213,0.20506620518488994,0.20610512031824912,0.21960211951859687,0.23738217116620008,0.26182813239756086,0.2923759086110205,0.33268049917378306,0.38308904978593583,0.4242828888008603,0.47554749465242185,0.5279477425325347,0.5726796544543364,0.6190508589440364,0.6713302829342993,0.7153988536810951,0.7624708797262771,0.8149346194494944,0.8650445938264757,0.9065713643885984,0.9583382877743802,1.0,0.9916062756252684,0.9504145862516165,0.9089118571141759,0.8571267348026033,0.8056284164738714,0.7643489790325089,0.7136809559728792,0.66118012751437,0.6087061385190449,0.5614206374494164,0.519483142270412,0.4873638983022692,0.440862503180421,0.39465409539293494,0.36218725718851674,0.31259774972326726,0.2715369160035217,0.23769724468168185,0.25159797392959016,0.261202159559927,0.2613644700096578,0.26839439146425237,0.2873565077032558,0.3028103699347291,0.29824972967737073,0.2848100727312657,0.2638577557184343,0.24917279819521232,0.25811531913134855,0.2671930532745779,0.2649096195071219,0.261324310898309,0.26121889031950873,0.2547000017618313,0.2591875249231448,0.26066165949326603,0.250953083736734,0.25949169284784857,0.2585270899955381,0.25169651466650755,0.25922730704316965,0.24845210227943593,0.2472555710735369,0.24714782727690654,0.23949936529745575,0.23323204775907058,0.2331924491106543,0.2334574224962278,0.24308532488070655,0.2580944099464424,0.27886714997270845,0.303045489952511,0.32912624593303175,0.3448347697105496,0.33600615227301134,0.3142076616106593,0.2801030826943469,0.24322598714884736,0.20539524686432653,0.17027058539922546,0.12949253699247754,0.08858377907409842,0.042614123299223206,0.008504986665414105,0.0,0.02365421759449582,0.049903001895971855,0.0761543448235873,0.10240528042313457,0.12730034779519617,0.1412801948738065,0.15423955731110306,0.16439477695224136,0.17581859219442597,0.17693945209903994,0.17706189286555407,0.18541941176917165,0.20181568593839483,0.21771656560363972,0.24351742881627603,0.2741122509206102,0.3168432866762152,0.36217519840031853,0.40986479719774227,0.4531584802701012,0.4943890917360054,0.5281053317111284,0.5690564372794253,0.6208660821621477,0.673164496782928,0.7168294072008621,0.7643300804952227,0.816812010570267,0.8693125674767299,0.9197945743088107,0.9607676554721087,0.9902281019995032,0.9692311550928254,0.9242577035263917,0.8795257916045895,0.8271347133970393,0.7780888323715751,0.7358367331046569,0.6836811226549822,0.6311788006602215,0.5786767162735007,0.5268670713907784,0.4853403008286552,0.4353001299380028,0.39120443954910344,0.3573856512421285,0.30585218413759163,0.25512039474852877,0.23540396151309917,0.24655696860076404,0.2574075346657727,0.26144925872077485,0.2700898901475157,0.28615679881766276,0.28936023763441776,0.28246198160153524,0.2657278630199018,0.25089463783064536,0.24030547157415727,0.24713988619718696,0.2472555710735369,0.2472555710735369,0.24725706460978758,0.24909136354491812,0.26019856322196766,0.2533012141628119,0.2472920805595411,0.2472555710735369,0.2472555710735369,0.2472555710735369,0.2472555710735369,0.247254586697371,0.24531573312265786,0.23422905605162514,0.2331924491106543,0.23319611506327087,0.23652112356323096,0.24933729249479342,0.26258148044552865,0.2833874189368837,0.30876159832092753,0.3291230279660824,0.3422566818551962,0.3228801250879405,0.30068156421096903,0.2658198410607153,0.2270557832758846,0.19194840350942188,0.15684199735163018,0.11526142696836539,0.0686197858327362,0.03463331580202089,0.015134868672403101,0.03528458466135964,0.05837388203398275,0.08456414954996427,0.10771338668562302,0.13619088321240547,0.15589215680864932,0.16578162096621396,0.1816259548332364,0.19084829180082252,0.19100308322200776,0.19187976589805,0.20289251898081684,0.2053935895165746,0.21880038978524485,0.23942722711650477,0.26990344271990674,0.3112900541674004,0.35232604431126013,0.40264017927453644,0.4442029593506738,0.49430235925559884,0.5467728268841574,0.5940388019926925,0.6378963483867466,0.6902439129043274,0.7418695522230454,0.783359121135037,0.8336903155518649,0.8861900789204857,0.9385070430188631,0.9752575466392175,0.9665536840255036,0.9253915668228552,0.8765306861117494,0.8342785868448326,0.7821229763951578,0.7296966338781488,0.6838312108799123,0.638618504386963,0.5861768103789977,0.5336744883842375,0.4811757518862638,0.4309604547253878,0.38943392381926145,0.33772832236807915,0.285257401158979,0.24224794257213755,0.2489491544822502,0.26149558311559185,0.2729742805420341,0.275416801280286,0.2826453759946088,0.3013433154429199,0.3027977045049606,0.2870280163945922,0.27162947200090226,0.2551842850396375,0.2514078794267327,0.26097109160780985,PM
0.0,0.020200479701338647,0.06962298249285981,0.1114367960836593,0.1537476581269055,0.20113378425892803,0.239954102339472,0.25044423999223175,0.2938452348920819,0.3488175803953486,0.3887093985283365,0.4058781354012009,0.4103711214830774,0.3985501651565704,0.42037056164851494,0.4530079177460542,0.4683969837828066,0.4691450194697908,0.46548364596240255,0.4463068584465337,0.4298526458413514,0.4036443367027238,0.381069726571309,0.39818171387560497,0.43232282381443543,0.43608514238552587,0.42566647901563703,0.39983462828413074,0.3748404089769872,0.3667434500932467,0.3863838044667265,0.38809540895669237,0.3661232980665199,0.3361685211082097,0.3125199254552977,0.29066902284099116,0.3079641343933517,0.3356041359251414,0.3320168992095973,0.3436474724005829,0.3586612775902247,0.37535249295544615,0.4003177235189965,0.43590437844584784,0.4423801866241095,0.4275142775545042,0.41417648615446634,0.3889911882235051,0.3779768273326414,0.36394878536316577,0.3700587830009714,0.3858567766638066,0.4250724013986127,0.4859334360513414,0.5354158348333029,0.5914827128137805,0.6392817646107178,0.6861905164819095,0.7277103424901488,0.7845214911817537,0.8344757345520577,0.8962413398310143,0.9211909117247021,0.8796070614889486,0.8189786607544467,0.7633479201353115,0.711636680565551,0.6517150621651449,0.6034711154357821,0.5443358083421943,0.497300335452711,0.45095447076153095,0.40483084086828613,0.36836532955549783,0.3444676559804809,0.3250796048555289,0.31197733498661506,0.31314686291138916,0.3215702737723092,0.30603226430732855,0.27616981271301944,0.255671514004705,0.27352622893862355,0.3048571727670466,0.33095438622802087,0.34779294527756655,0.36113469530943787,0.37567713268065495,0.3945795056822279,0.4282063667599263,0.4329712148739633,0.4258354946128238,0.4105780044587948,0.398579937515918,0.418393583625138,0.4326992425597247,0.42411101344200564,0.41457764383432627,0.4002748496839934,0.3646053425074425,0.3315035260548447,0.32876591774951747,0.3086971382077839,0.3218076815846125,0.3600086031843106,0.3853413756590687,0.4195816249448412,0.44304974139622955,0.43285527190148043,0.4061349914430217,0.3822395188814234,0.39420495639288644,0.4136608670211843,0.45404102724328776,0.4986445261595329,0.5196014426544289,0.5116082057720082,0.4883650615151489,0.4613857007393185,0.43645617004301496,0.4473371218089679,0.4328631222363275,0.4183773538996971,0.44084675188499656,0.4786654017302543,0.5153750146364411,0.5626090725943551,0.614650641255297,0.6628547349511065,0.7218861795389095,0.770061053731105,0.831496568942399,0.8851507986579694,0.9387608175881912,0.9991912195919896,1.0,0.9398095290787203,0.8858889269249688,0.8325547965074431,0.771047073096804,0.7228261070156776,0.6629404074669663,0.6018619031570265,0.5539555681780421,0.4980464045561366,0.45607309932775,0.42314798734100734,0.39912471448284226,0.3968498901642228,0.3962680950258921,0.37319436177558174,0.34538052843030487,0.35310438178406267,0.3688379733310829,0.39361464189037143,0.4093891207942111,0.4041907258468349,0.3804840210859455,0.4034080749193665,0.4312473867755813,0.45954707592220156,0.4869995080887439,0.4979167023477551,0.4747884959265729,0.46712247458460654,0.4513799695088965,0.4228738243842609,0.3990014580619339,0.41934360164661744,0.44986795270735414,0.4461812885539329,0.433433965627104,0.428386800558628,0.41970069326312354,0.4436065922517294,0.4387403468136819,0.4149144739525932,0.38385595232069747,0.3523889097179178,0.3101941817400027,0.27562164130247924,0.27105941880416484,0.29654023875919133,0.3425031239882057,0.38998286554193706,0.43978473547053376,0.48579249090671617,0.5046908739877369,0.49869273818537563,0.4772265561486644,0.453094380193352,0.4334571028490859,0.4052057290048241,0.4168962995172656,0.4354843147342735,0.45207824412431874,0.48301333271296265,0.5327860808753413,0.5807057074656079,0.6370006677307738,0.6862579191712133,0.7471324073520109,0.7954705740268935,0.8553916077995738,0.9142075097704807,0.9058428801550891,0.8587799644047127,0.7977941799765556,0.7431074725380951,0.6905383540177588,0.6311562579944221,0.5826386668253054,0.5237772697867991,0.4767147648139707,0.43705404415276083,0.4069264870552671,0.39465431997055544,0.37600358184698157,0.34799557669899794,0.32139867203958294,0.28590805012861065,0.25800672930636814,0.265559794280831,0.2946675209750249,0.3285247743814135,0.3826696108661629,0.3967698042964085,0.3983428124614745,0.4298127648323584,0.448500704660201,0.4291822970144623,0.39991994165868494,0.40226230561810983,0.41466371793875245,0.41664480083126865,0.4310595988699437,0.42006304338128864,0.3995314655528066,0.36686503554881433,0.3678501370547771,0.4056753898201695,0.44990916851360696,0.4683472524233028,0.45119089377641064,0.4345330597315957,0.45351236246032345,0.46884963071459973,0.46079896642266815,0.44041706847093964,0.42983703061339007,0.4226549508430324,0.4376326079487902,0.47160156485952864,0.5169005434547311,0.5317916572449444,PM
0.14783371249141064,0.12745494377992528,0.10779487499661,0.08614707684765399,0.07358726637451363,0.05682214897488924,0.047518688653847674,0.04036502866710001,0.03204796383193509,0.03540514993241439,0.03494898446009387,0.03822241391196757,0.059248574850082614,0.08566349743543888,0.11955824026685469,0.15674458174366013,0.19577772955191675,0.23573152332515712,0.2734478502300519,0.31728904968483884,0.3599035173978602,0.3956355470397257,0.43883174399821767,0.48282706348550963,0.5264410134729642,0.5628106213555775,0.6043740050867337,0.6483638614333374,0.6920331374458413,0.7264186920321638,0.7518734225147807,0.7930143235072102,0.8370037945831212,0.8797864388981647,0.9043694001385552,0.8914018089193707,0.8514928975394156,0.8089522775497393,0.7730951752327355,0.7299645160709205,0.6859691028379657,0.6419734282534657,0.5979777536689652,0.554159146925727,0.5167430137763538,0.4764201865992179,0.4324409557211375,0.38844528113663723,0.34444997869401117,0.3012749971150439,0.2655586740454223,0.2229073355146305,0.1789131068859644,0.13564619199571992,0.09992437489158434,0.06711589451695166,0.06915221171129682,0.07172333398340247,0.05863299188408666,0.060994459014167335,0.04829544102661143,0.03902040523652173,0.0446668866154476,0.06585846950189667,0.08162088087997343,0.09039034909293808,0.08504256436504432,0.09232464184472344,0.09394848170001469,0.10161714952066658,0.09854387743755422,0.10851987921074979,0.11010244222743637,0.09938919449620176,0.09231577176909211,0.08403346632913378,0.08423146290075056,0.09394331018342705,0.10315962024861958,0.10846915469356921,0.12142412116632584,0.12472585568919503,0.12012951169742125,0.10114248717482432,0.08422085504797994,0.08283803765500819,0.07630680038839799,0.06556179050464972,0.06211819627011117,0.06307915741653924,0.07133685884846708,0.07880010008824567,0.09937760014321517,0.12354253460611941,0.15696601645386954,0.19330494668134302,0.23354659892130925,0.27067109402114675,0.3142091323933871,0.3511859437596865,0.3920242917390728,0.43600293078266805,0.4780505743209371,0.5141307309337706,0.5575461534806938,0.6011009002252266,0.6372333655596263,0.679091997451017,0.7230827724595286,0.7670784470440286,0.8110741216285295,0.8550697962130296,0.8990654707975305,0.9427384450589145,0.9788777908007762,1.0,0.9817891125084452,0.9438425222260749,0.8999557565627345,0.859941725972651,0.8222658761172315,0.7783845980545707,0.7343889234700693,0.6903932488855702,0.6464383331740828,0.6070377665353388,0.5687640845857862,0.5248564509377425,0.4808607763532411,0.43686510176874016,0.3928694271842408,0.34898372357771357,0.3107215898445985,0.2712872445801393,0.22733262923641284,0.18342053090743038,0.14681585584503898,0.13557600340159204,0.14060004991407204,0.13859672181128624,0.1339645531936775,0.12023377465650031,0.11560804911102451,0.1285206557673304,0.1484243587725511,0.15303291567656907,0.14597026545369785,0.14566536719841028,0.1435283245053005,0.13566511525520042,0.13522436638422497,0.13519479748843932,0.13123891341243765,0.12489349014555184,0.12364566877333494,0.11543178935552989,0.11433325875362743,0.11443435728053197,0.1204782677641063,0.1243468854460732,0.11687508755016518,0.1118835036941761,0.09344881535415439,0.07595761113080135,0.06452863107616769,0.05392327557938015,0.04182072550253735,0.038265099596984875,0.03103379734748346,0.021724821286640106,0.027077774576949265,0.022657156005299273,0.03229410566869628,0.04983023175800949,0.07449811144664609,0.10797750978834197,0.14329335537855337,0.18628682567085386,0.2302820599348161,0.2742767459286861,0.31701411636761034,0.35274438558935817,0.3958192697954048,0.43955993707548346,0.47653674844178306,0.5173750964211687,0.5613556558304702,0.6053459434533917,0.6469842845780582,0.6833498156552187,0.726892530479295,0.7708881283627993,0.8148774287763585,0.8564020990521981,0.8928334187355569,0.9325330231068212,0.9478298165862502,0.923592080910066,0.8876398388885924,0.8460924344429879,0.8021029365875552,0.758107344385607,0.7145717013547066,0.6782220244144526,0.6365609491200201,0.5925704640552278,0.5485747894707269,0.504579114886226,0.4605834403017264,0.41659344262252196,0.3749777478890315,0.33865151168382446,0.29504664235389844,0.2510509677693973,0.20705529318489657,0.16337110556720802,0.12668865935778895,0.08610385593270098,0.05672344901802506,0.05145078109764145,0.043902018553949596,0.028000588451403408,0.01619004266740931,0.0014907680204181428,0.0,0.014394843245078448,0.03710236461151761,0.041568979481503066,0.049192828004119615,0.0522579298645951,0.059882710855371,0.05081865232119287,0.04673903714140182,0.047274909509616325,0.04131047172703051,0.039866870722437664,0.03170451724957957,0.03057354144547597,0.023807861933708985,0.02250751817568797,0.0372204313641038,0.04910461219364137,0.06492251333955079,0.07227187570180682,0.06610120199214453,0.04696065549306039,0.0351497031379826,0.036573249798101504,0.04094918479807763,0.03210958118785556,0.019080877074914904,0.013670425375527984,0.02328755041195052,0.023958204524495486,0.02908543074575931,PM
0.0,0.013197073137602988,0.029085786943345848,0.03950475845934531,0.04768114118156275,0.05563748187792861,0.060469481217707344,0.06812433361773396,0.08233246085557044,0.10367829164786713,0.12973800886711362,0.1659734255311005,0.20616990220811116,0.23961958639320802,0.2788392899911043,0.31264536854450764,0.35150805523864026,0.3924912111953509,0.43090038476123627,0.4650834191523767,0.5057834700749946,0.5467803096126795,0.5877771491503649,0.6287599815259508,0.6665577499305533,0.701243591283923,0.7420577347086175,0.783054574246302,0.8240497755078202,0.8634306046755555,0.896938938619714,0.9363247043613514,0.966381387263028,0.9793927232484645,0.9577987077122372,0.9181716304241929,0.8805808130700012,0.845710226827824,0.8048662632482455,0.7638694237105605,0.7228728443045642,0.6825299046482636,0.6491382082064443,0.6095873769870792,0.568591998614624,0.5275951590769385,0.4866039671002347,0.4479109590087913,0.4139625760804526,0.3733145735186867,0.33231773398100173,0.2913208944433161,0.25032405490563114,0.2093272153679464,0.1683623809162671,0.13131822642229607,0.1040269596980965,0.09914933047508456,0.09377155906177781,0.08886172325137642,0.07495213698397718,0.0634936501679293,0.07884393875904117,0.09322340547337471,0.09918177896231484,0.09924099443666945,0.09924099443666945,0.09924099443666945,0.09924099443666945,0.09924099443666945,0.09924099443666945,0.09911337298062017,0.09347177918895966,0.08955872222361116,0.09015573115891273,0.09765963173584202,0.10029564064735563,0.10794083616846861,0.10893928259824626,0.10632279425258595,0.1004886388410069,0.10817441820163909,0.11567720708764528,0.10539094643534108,0.08788313169792272,0.06175806397824801,0.038275419801148125,0.014338091972154743,0.0026022389869093665,0.006667444142391732,0.01793320547515731,0.0335733213802365,0.04322453588348041,0.05917795104742707,0.07142852523571008,0.07953820947044798,0.08327123693909533,0.09335053138860983,0.1036461518720675,0.1179159290174554,0.14622546365946865,0.17680423823171787,0.2095994740066056,0.24647428767083235,0.28065473989510314,0.32135479081772056,0.36235163035540596,0.4033484698930909,0.4443453094307761,0.4853245420905892,0.5226196501242337,0.5577729953242643,0.598625894989028,0.6396227345267129,0.6806195740643983,0.7213911172678285,0.7559208892418479,0.7939184581200109,0.8349001596226504,0.8758917070995822,0.9146592905875988,0.9485807085764675,0.9855905391756061,1.0,0.9818675304538522,0.946069108972099,0.9051315142624174,0.8641409353645355,0.8256660854765494,0.7915372714650672,0.7508509287041658,0.70985408916648,0.668857249628795,0.6279635539218518,0.592305457356836,0.5555359740605841,0.5145766640705429,0.4735799352271932,0.43305845930924236,0.39927109389276216,0.3602926810387872,0.31929923897460566,0.2784075830697714,0.24277472407300515,0.20597904917041188,0.16502641955578023,0.1281571975237814,0.11860720683917836,0.11291227519600389,0.10819311101134188,0.09343628462517484,0.07397073935397391,0.08136069193026318,0.09655375048117665,0.1048820614835031,0.10891354259434172,0.10894776702915743,0.10894776702915743,0.10894191510856888,0.10656536426117524,0.09957705134620976,0.09924099443666945,0.09924099443666945,0.09924097229780227,0.098871407944231,0.09176674306836974,0.0837441580392162,0.0803019413740571,0.08768002577243106,0.09038115185501838,0.09796162870466607,0.09923957030757524,0.09923248677447138,0.09612192241121065,0.07651500911820452,0.05465319677826752,0.030370566358544737,0.008722835162087383,0.002511197243737273,0.011622617403162394,0.02466745542272819,0.038955472634234045,0.04739447510126982,0.05739217964370269,0.06538579341391104,0.07326237358315724,0.07982606257076097,0.08845371706603311,0.10256428255717287,0.12447296017655396,0.15310181502982334,0.18702342057275234,0.22030410701320058,0.25871196670736984,0.29201686946121663,0.3320212169041341,0.36675109149868224,0.4045100198719327,0.44548728267695115,0.48648412221463677,0.5274809617523215,0.568477801290006,0.609474640827691,0.6504714803653764,0.6914683199030618,0.7321972628852285,0.7665265558779777,0.804762765261053,0.8457211477898303,0.8826701618190413,0.9096257035198683,0.9060129211624659,0.8757956895813628,0.8421599431748401,0.8015575998402911,0.7625534105217877,0.7361192607792701,0.7002814669723696,0.6663386634851429,0.625690660923377,0.5846938213856925,0.5437036863575733,0.5052527005200775,0.4711038386104689,0.4304132358274395,0.38941639628975544,0.3487097273782853,0.3145120385806759,0.2761239479513866,0.23513581073150225,0.19436957992036574,0.16004201866176637,0.1241427525344243,0.11623044265509397,0.11791159601421075,0.11024463510166416,0.10445739160143974,0.0831640698556706,0.08276293583328354,0.09316721632318026,0.10704233313092626,0.10988678842765043,0.11688180397470971,0.11052199171449129,0.10894936102759001,0.10894776702915743,0.10894776702915743,0.10894776702915743,0.10894776702915743,0.10895400638353525,0.1112886771161834,0.11827833514035535,0.11865451194806198,0.11865453962164585,0.11865453962164585,PM
0.11074870470029952,0.11066387140610501,0.1056468824560799,0.10146840068658936,0.10143147037122602,0.10143147037122602,0.10143147037122602,0.10143147037122602,0.10142090497492795,0.09810206468449856,0.08031906490287666,0.05328304522759231,0.026210707496109542,0.005898637454139433,0.0,0.010557232841073017,0.026759893890712316,0.03612556179241766,0.04349038976812536,0.047800645059930646,0.05587862007683975,0.06569451565141282,0.08282227129884379,0.10888053965209199,0.14198827282812498,0.1824656205538029,0.219709406558807,0.2554319485314962,0.2963380095763539,0.3331266983667214,0.3692759325883783,0.41027038474962807,0.4513168289000713,0.4888638028951937,0.5242668607105387,0.5597741763880331,0.5883908400282754,0.6287321807606698,0.6690618657612202,0.7028931318775467,0.742622949366595,0.7836905213893526,0.8247560203023174,0.8639087599409421,0.898049832482537,0.9368313612065324,0.9561423014357224,0.9386293524704157,0.9048274058287293,0.8664743896242073,0.8254171249838951,0.7845128730422197,0.7492095374895689,0.7115069857105927,0.6704587206607315,0.6293898260369315,0.5884935535162401,0.5532650762528826,0.5154806414297721,0.47443141801179567,0.43336251061619424,0.39229360322059215,0.3512862743472922,0.3150008022956372,0.27835297989322494,0.23733520796725838,0.19626630057165717,0.15519752750767557,0.11484238695694438,0.0930701391776072,0.09211451813238414,0.09211423604215252,0.0920997463429345,0.08852507920819153,0.0705696335142163,0.051847626858681384,0.06239442844031817,0.07819685921877584,0.08275991929251858,0.0819869106555502,0.07467111168294394,0.07343545463134316,0.07092562753434417,0.07303218393124311,0.07347962592089963,0.07347976738400597,0.07347976738400597,0.07348833429149737,0.07595390833897175,0.07852205789483668,0.07206155241120893,0.057041600190433694,0.03657719694327888,0.018388899156025262,0.012082683635884717,0.019672777464310398,0.026568503774769603,0.030653310644158216,0.036082089597259115,0.03638817254949678,0.04281197357137545,0.057131991561000905,0.08469554251008637,0.11630592825835051,0.1492129181932691,0.18594047272116887,0.22039298642386074,0.2611565337074957,0.30095586454930223,0.3347402200379357,0.3750482269836677,0.41611257061432183,0.45502749282780863,0.4893264078833337,0.530006056126999,0.5710748878172829,0.6121137383592656,0.649121552642006,0.685061183653644,0.7260332830706164,0.7671021904662187,0.8081710778711741,0.8488937271146617,0.8782604276641415,0.875065973782386,0.8419601527802687,0.8066846519576187,0.7657502780341563,0.7246912900260645,0.6863127538034806,0.6516054043189086,0.6107918827808225,0.5697229753852202,0.5287134338774577,0.4923390489067916,0.4557773115192405,0.41476458013188666,0.373695672736285,0.33262810566751067,0.29290316014106565,0.2590708169109128,0.21873697910404521,0.1776692447398387,0.13748633713483227,0.10394484123495262,0.07670143444800637,0.08101129263892037,0.08281247530025171,0.08605886514046612,0.08636306895429557,0.0712192877549358,0.058498088896739686,0.06426857388040808,0.07819574379111449,0.0831097266176053,0.09037373970288076,0.09960346626035266,0.09587009688355774,0.09178914407828254,0.08489241928223379,0.07588150958071949,0.06063172832066366,0.05974121497852125,0.06597983754899239,0.07743833445501092,0.08593171891942286,0.09193117202019185,0.09187737866755996,0.08268380135355602,0.06262132417879518,0.04059612359480225,0.01702764528982592,0.004376228226606216,0.019594359687695517,0.03464358486029595,0.049392180508115224,0.05310724123310573,0.06197541454819566,0.06991609863216053,0.06806596327180725,0.07041998824162898,0.08677797886050342,0.10934970926611176,0.13978820107722556,0.17291623835908232,0.21104532572110313,0.24509297589231593,0.28510703846979,0.31901851020764416,0.35846262752149705,0.3993055667506964,0.4341370395509616,0.4723594381477201,0.5134176494985467,0.5544865568941479,0.5955457473405206,0.6340295245847072,0.668631716877337,0.7094450034197881,0.7505138595430836,0.7915827669386863,0.832631031988547,0.8703335837675232,0.9056369193201745,0.9464067546987174,0.9807749412920534,1.0,0.9819595628394104,0.9424850642448783,0.9052758072818956,0.869524016019402,0.8285593988642614,0.78749049146866,0.7464215840730586,0.7054138529025833,0.6691122148656534,0.632480044284125,0.5914631888197253,0.5503942814241223,0.5093253740285208,0.468289280907217,0.43088164025741915,0.39531922369918604,0.3543669787751875,0.3132982425665858,0.2727710807600201,0.23875652375461565,0.19940562976766918,0.15858998498780474,0.1291774000830046,0.12144511182076867,0.12842688741484087,0.13143641817027518,0.1364633063416818,0.12520455566145228,0.10844827055686057,0.09652363024829924,0.11110455953087484,0.12377319186427971,0.12316610350133428,0.12869407570664415,0.12327886819476852,0.12008456880207197,0.12005694423384328,0.11754904092684626,0.10941008714914413,0.10196167576502169,0.10139826366354399,0.09771497302496868,0.0921151529722739,0.08669827417321518,0.08050962573778353,0.06822795570111229,0.051755158741786156,0.02917539810747405,PM
0.07763843437369622,0.09887687057742833,0.14060057292180983,0.19044737176981275,0.23994930450458996,0.2956174691074718,0.34523840393947025,0.40173602169790157,0.45548682275588415,0.49997416588599974,0.5416820744139581,0.5995791814415086,0.6501956005522038,0.7054034307583545,0.7627387859975372,0.8119541893343329,0.868077111776463,0.9173338903727293,0.9707526010035832,0.9999999999999998,0.9817110919059482,0.9371897534891522,0.8808841503481963,0.8268558881259651,0.7751433681315738,0.7160696900074688,0.6591228572146852,0.6097552602872567,0.5513085917673715,0.4958004851335265,0.44659373732387153,0.3980576944802625,0.34910562488341434,0.3097737509866134,0.26648060005897967,0.21531308004398464,0.17380517336138435,0.17545959402554678,0.20492288855940477,0.20987857656663755,0.2001777535519238,0.18963387215610905,0.1667218298821378,0.14008934079464486,0.1228078465857656,0.12959625982733525,0.11983771092714934,0.12168315454420164,0.13625683275062195,0.14795591893392124,0.16108298626534379,0.17356890635602018,0.18577489013949466,0.2089854676431353,0.20277423681341067,0.1697051637041913,0.1418507788032295,0.12210142147652392,0.10339247065843105,0.11228942461616431,0.13112220023617538,0.12387758052698694,0.112133136580016,0.13649530707650714,0.151061564188127,0.18286758903416156,0.2317010700909592,0.2770031941100568,0.3328777774503482,0.39211012080012764,0.44967990147786785,0.4988197844205129,0.5566851401622455,0.6080023809929844,0.6582234270702243,0.7075321409192814,0.7562805738370206,0.8106334013445327,0.8544356020826396,0.8671400623846337,0.8291626534383438,0.7831357688866365,0.7401478663000292,0.6901152118540865,0.6311362212661875,0.5719223921962164,0.517468099371418,0.46986918696537816,0.42246378502385196,0.3732340479223406,0.3200724120506766,0.27036327655011383,0.22336142379025303,0.19596855987563777,0.19524859582113607,0.2117411966952616,0.24407925851835688,0.23926291210734907,0.21059813901537905,0.1938187203936279,0.1768431782877633,0.16548034270663803,0.1741220195554749,0.18441503031112005,0.21065160478349498,0.2338273839861833,0.2181219029086161,0.2105544674593507,0.20572215357997048,0.2065763365752129,0.18887908469651138,0.1802530594981968,0.1533686458365342,0.12041766627103301,0.10294366907214791,0.09016636019847435,0.06015513394681027,0.03529054316875291,0.05058274476770275,0.06368621110231465,0.05568335644259759,0.0315786559261253,0.02755052485642362,0.055074300702354195,0.09868460264281231,0.14518988050728798,0.19717450316653573,0.24931957896345547,0.3068005715032738,0.3559305533196089,0.413782746449493,0.46494119812341395,0.5073767438332093,0.553135106511778,0.6075712623216745,0.6580161218060792,0.7074714910279616,0.7631547864217005,0.8026525633502766,0.7922742270352023,0.7484820632697928,0.7110144328038495,0.661703279102875,0.6108108811347328,0.5521353601551924,0.501522519428524,0.4474019918163268,0.3990312055759191,0.35133159581243256,0.29446380246130643,0.2366740146069357,0.18791654984370143,0.14119916787053266,0.12665205401947977,0.13613971285686222,0.15309484034672693,0.17246565585830997,0.15772262868474685,0.12400982865082466,0.09518835951039573,0.05907586299801193,0.05190477663161075,0.0752496895037027,0.06991989341962612,0.07077572002941301,0.09530515350286772,0.12193156898051805,0.1449556094856861,0.13979956159952622,0.13934512430338297,0.12203500635580178,0.11133788260450461,0.10186700841243002,0.06918855238708566,0.046803100396207276,0.018949578811449763,0.0,0.012954458966335736,0.019212841845124506,0.029275897579661425,0.033981622613906914,0.05221220323814113,0.08424728103136325,0.12901223060917055,0.1762578032608071,0.22411408675051026,0.2735023792054696,0.32854643942571493,0.38396882166208157,0.43442843496996697,0.4925553790080437,0.5419669257877937,0.5988374334513467,0.6546156144253497,0.7004736671613723,0.7382499382618575,0.785074919711459,0.8424599298708044,0.8918880765946404,0.9454063953601801,0.9569494611745697,0.9154881314199603,0.8706867785995753,0.8231908229471696,0.7706393700206646,0.7134195915452863,0.6642337885283685,0.6060301645128734,0.5524946035366372,0.5006260111261638,0.450107829071271,0.39991745197639106,0.35234499796885044,0.3021398377686835,0.2500432098369758,0.19879281790556846,0.1753261562865298,0.19189766791185092,0.21222378346600856,0.22032169817684655,0.21118685389770575,0.17723724705273525,0.14699281618750804,0.12208762356989067,0.13226738598699161,0.14292179270220395,0.14076750940767568,0.1569158511800557,0.17189227780836291,0.15597222734991667,0.17317242027389956,0.20600951263505318,0.21247452529531974,0.19827527037049086,0.17147790621549386,0.14800303286001726,0.12160389942726968,0.10118651144982027,0.10028241515718217,0.07121099437545175,0.04324232409023021,0.046997157999134176,0.05757025030358842,0.07397930889219961,0.10275669999692805,0.08915395007026006,0.07973787915892117,0.11102251663989171,0.1432535417776395,0.1888081592386397,0.23689473481436685,0.2945642981186325,0.34641404099476225,0.4002966669631969,0.4542064567322044,PM
0.20517975586865378,0.20293538308245518,0.2288415005528246,0.2569102626334786,0.2766561875621921,0.28621034691343994,0.2953823452739658,0.3089710925649123,0.32473929347215613,0.35073114927168125,0.38131724187624505,0.416638231428906,0.455268692022757,0.49394006777851274,0.5301403647814104,0.5651387112720313,0.6037103551143758,0.6405006349049759,0.6750009877899518,0.713474724694188,0.7507925167716213,0.7849118212946203,0.8232371277790574,0.8619347617222156,0.9001173595110347,0.9340577767595856,0.9710322134770141,0.9992382952042141,0.9980110387858409,0.9673869191669199,0.9331585033712132,0.8947427721859683,0.8560447387745277,0.8176610282377633,0.7834798206158154,0.7462812900361683,0.7075897800792891,0.6688938903387,0.6311368894240831,0.5972154330949367,0.5593961982332379,0.5250707771851312,0.4880681126439411,0.4493832288763543,0.4120219007061484,0.3794506131272358,0.3544669653964404,0.3533339984918803,0.34849962270443824,0.3541418495213978,0.359744562575128,0.34925303063089974,0.33572604049128063,0.32960091733744334,0.3457999152968373,0.35500107260850433,0.347940407684879,0.3461242414918052,0.33720128062017685,0.32286770697235945,0.30709890880948953,0.3135000555881119,0.32557101096039676,0.3350049291847551,0.3276611162998445,0.3283636556935897,0.32508341221516435,0.30254836875601365,0.2771356000034838,0.2500966385319848,0.2224172850336078,0.19533573593540388,0.18762596314289592,0.20766139977490894,0.22490537602454264,0.24150118521839292,0.25469941805128393,0.2669410219808116,0.2805190012455513,0.29970699483572116,0.334490462851215,0.3687429124362779,0.4053580172092507,0.4397753436223176,0.47822930144289477,0.5156238708247544,0.5483325129803879,0.577249348630224,0.6139432854943195,0.6492683378036749,0.6851145550791108,0.7237579077777495,0.7605987553661088,0.7950574826515159,0.8331629199235487,0.8637992743809951,0.8718002813294848,0.8530898675305142,0.8180589303683196,0.7795245808267278,0.7446675175485847,0.7083121208187163,0.6696372287138127,0.6309390476554967,0.5922408665971809,0.5535778233262726,0.5175079875502367,0.48239925333528866,0.44571685003871553,0.4112787841114306,0.37581500080428365,0.3425975971276295,0.3125316393294818,0.2967507929167341,0.3018965040145991,0.30447549061352686,0.30199039507188785,0.3016217485628244,0.2993246433249467,0.30308014456592924,0.31226986652800426,0.32744594438482577,0.3457822564099492,0.34542293627866816,0.33699539978878035,0.3134722301987777,0.28255347447796864,0.2525620039423633,0.22462028129650258,0.20197752590336415,0.21061918679672642,0.23696888738891742,0.2657062538049414,0.2961245505268306,0.31746686042045547,0.32859959068124633,0.3269416218212776,0.3238212738945726,0.3485536727727888,0.3804515851766873,0.41459272768198285,0.45014548074940863,0.4855444162436314,0.5237717019147013,0.5578519329816393,0.5952279393741918,0.6334431130064136,0.6673914569788207,0.7049832992587765,0.7435529013033003,0.7785047205054881,0.8147653442108939,0.8534349479984901,0.8921331290568056,0.9308313101151208,0.9692923796276992,0.9992084342651476,1.0,0.9692776367867254,0.9352316842396923,0.896904972361101,0.8582069780326568,0.8196100184437919,0.7844745377244061,0.7484175726958627,0.7097521061885207,0.6710551771473866,0.6331139608325701,0.599224258467811,0.5621691398884657,0.5282699535091261,0.4919161675041296,0.45764316077290823,0.4220464594517651,0.39166216046298385,0.3756726239683835,0.36877954023869475,0.36360793542049297,0.3798941146227296,0.3863365196499612,0.37572017477552,0.36397196308868673,0.3603172723517244,0.3635576733576721,0.3805210590231799,0.4074770660829411,0.4367266851506654,0.46843288039543485,0.49911799452651306,0.5263580424303748,0.5424084781848063,0.5337672751388703,0.509759555184475,0.48140006159628423,0.45433091590227603,0.4296814146301361,0.409541940321721,0.39257108870953894,0.3719690164283548,0.3464314621856731,0.32060673480831847,0.2934247292279961,0.26446181693410065,0.2345394518892403,0.20184055587334337,0.1713951192360016,0.14302868862010876,0.10908376146032994,0.07253665970774015,0.037302796904578495,0.0030486339502243665,0.0,0.03205130318158833,0.07044929005737954,0.10914738860714679,0.14784556966546325,0.18654375072377827,0.22524193178209473,0.26394011284040975,0.30263162279728983,0.339830153376936,0.37401136099888344,0.4123950715356489,0.45109316574286085,0.4896735745200219,0.5246726291067892,0.5608802561651481,0.5994876635393932,0.6350786440200257,0.6704483523503545,0.6989753614553661,0.691937153533667,0.6604783191032163,0.6290624181466583,0.5969471009827044,0.567046070817305,0.5402190204229839,0.5055275920787677,0.47051392486535926,0.43194336891940865,0.39527062997414764,0.3659600133842499,0.34096075642095636,0.3237345885601989,0.3314569063741656,0.34676026454155606,0.3467841251471181,0.33311065670954265,0.32204302112055394,0.3248074797912216,0.32949713460957797,0.3191524631874382,0.30265462390415776,0.312334283128081,0.32395214019833773,PM
0.2649698722850715,0.24993960790057734,0.24981155434011892,0.24002902921110536,0.22434727234671303,0.20525000966224116,0.17753367638638906,0.1473778543438744,0.11468400219992514,0.08009326330865552,0.07422564020336742,0.09040240310604641,0.11536332745305167,0.1315691519382982,0.14925416424864668,0.16576817607174288,0.17471539556981952,0.1909914580600125,0.19959148073028032,0.20161577941759123,0.22443743528112137,0.2478317617173973,0.2748954196506075,0.32677651316474865,0.38347327585403335,0.45047275541879994,0.5093376347042575,0.5767581157298869,0.6477029094478421,0.6865096147911807,0.744611822853245,0.8038750476186847,0.8791161275416473,0.9520675767001308,0.9951689034237026,0.9899985189194158,0.9401061091107579,0.8775973698248238,0.8148319622477569,0.7393555500349409,0.6649387292382682,0.6087024754762327,0.537836811173956,0.4622946034684352,0.3869048570502116,0.32405316863601197,0.2608764267787915,0.19843588984954863,0.1649467319845508,0.19567379705072607,0.22292359162105324,0.22472913400126515,0.22472955884092993,0.22454934339857946,0.2112333704389453,0.19965703167671833,0.19368024354648927,0.1614961120388143,0.14943538942958412,0.1500021130902347,0.17184171849585006,0.19864558811544075,0.21851386072326662,0.21859602109476395,0.20407720671262197,0.2232120144194747,0.22472921785119926,0.22472955884092993,0.22472955884092993,0.22472955884092993,0.22472955884092993,0.22471436796244504,0.21817968238486518,0.21183945805954174,0.22455077970727633,0.22448614581589243,0.20964593201893944,0.19965257489592947,0.19779653811306375,0.1757958891394633,0.1451993305277064,0.10906240209199503,0.08340646179965283,0.05848139328350843,0.0490178883382133,0.06228792640666603,0.0949512774767296,0.1194006319912102,0.12432523135197115,0.13795882791450076,0.16967142741492047,0.1793920453446658,0.1985861197534753,0.1996136613266799,0.20053979488197893,0.22123943970343252,0.25158484006136117,0.3092267606558732,0.3604230658194991,0.41601737029455954,0.49058490424749834,0.5525287138811237,0.6167314339465824,0.692177196404006,0.7677189680898708,0.837799540209061,0.893433781727679,0.9412114393712354,0.9441006472566045,0.8994417608718095,0.8344810640898643,0.7751677097101872,0.699860276970445,0.6267673567542165,0.5721474896651433,0.4983427623184937,0.42279957356874576,0.34977919585007555,0.29524789789376804,0.22165260219162697,0.16821876538145908,0.18790025432133906,0.22171494895894472,0.23091901190919373,0.24939805352260436,0.24984525511533917,0.24984526629533033,0.24984526629533033,0.24981585767621528,0.2397070939477075,0.20307623655706042,0.18232245013819615,0.1993749103958793,0.21694627673878575,0.2472413478622686,0.24984459829085637,0.24984526629533033,0.25002852611910864,0.2653966207003293,0.25568987356233563,0.25005743505012124,0.26550001125023037,0.2520573629766245,0.22766825740779417,0.24934865624365532,0.27250287201562706,0.2640257271927817,0.24992617474114365,0.24984526629533033,0.24984514331542762,0.24903522923489874,0.23011473048886621,0.22387975623385703,0.2008083497874873,0.17132086447103667,0.149445040301587,0.12425952330901335,0.07580720856752876,0.04549277880333946,0.02724438244606331,0.04935779199984003,0.07234079860264009,0.09412353954618435,0.13114451432085605,0.14951686068742465,0.1697251262943471,0.19759780358638768,0.20244066597363908,0.2227684714263125,0.2276369516031833,0.24795361846718222,0.2594065861540811,0.2848230344604845,0.3280505652298773,0.3815126081771645,0.4546862754949581,0.5125596048666479,0.5811909065819538,0.6534493048715513,0.7089105787218921,0.7826914675858632,0.8548450718364817,0.9103299852187066,0.9731837261645522,1.0,0.9624359463078456,0.9073486721722954,0.8357784379621211,0.7604375990297223,0.6987290912435133,0.6342136443766835,0.558732893690248,0.4893770795096817,0.4321107891633762,0.35742159981877286,0.2961287940791051,0.23147753048456554,0.19084442099447418,0.2303268259939797,0.2611794252426254,0.2681456212400555,0.25041088152284807,0.2496032895789897,0.23479771761924884,0.22554079304819385,0.24266876274709404,0.22606235203620795,0.20088334509121175,0.17052757869044388,0.15439797173966063,0.17336304522697255,0.19151091663483033,0.2234171514489791,0.2247293268561128,0.22471122934163734,0.21729048538697882,0.20004763919894852,0.19961385138652954,0.19961385138652954,0.19961385138652954,0.19961385138652954,0.19961385138652954,0.19961385138652954,0.19961385138652954,0.1995934969705866,0.19163690526323052,0.17491878325478982,0.18806588286364434,0.19949003223123896,0.19140038932122394,0.16654144099988688,0.1413629552925455,0.11618446958520501,0.09069654032367858,0.0546702369049914,0.017307582598395488,0.0,0.02023955180830761,0.03816378546837651,0.05466044218709376,0.08788524810152687,0.10018295449250836,0.12097494854421331,0.13907300768333997,0.16412275559372258,0.18041374017784406,0.19906952277258316,0.20575377788429527,0.24046341703087926,0.2781417048347157,0.3222673791660142,0.38861722267510324,0.44569346175314095,0.5207966189188449,0.5882835992773368,PM
0.11343177384679515,0.11912201076099738,0.14059449823551406,0.15783152754961116,0.16724701581233847,0.17367556910609316,0.1783676206205913,0.19605091345399073,0.22956861032444387,0.26704812109550957,0.3047406361438876,0.34788693461996845,0.3944741802699039,0.4346618225974943,0.47739563261793094,0.5171518885627511,0.5619061582710567,0.6016254299754029,0.6478841436159748,0.6921085719670146,0.7325729230816063,0.7792089239572519,0.8256937881705635,0.8656951185366812,0.9105223519517158,0.9554404096861269,0.9921266237628552,0.9999999999999998,0.9668699678067594,0.9241159680724669,0.8827218449514216,0.835913899933397,0.789837905910604,0.750213461139819,0.7068333888096994,0.6741117085475643,0.6326876091425226,0.5921022530672675,0.5454027342509946,0.49845458185335256,0.4515075594768314,0.4056659286813198,0.366145741164144,0.3203123368420375,0.2787524701638413,0.24127128769876438,0.23283121397563766,0.23077011998041352,0.22469531399611786,0.22463208751722652,0.2302437412143976,0.23235278103503365,0.21398566006544972,0.18928351279442146,0.17717638071371122,0.17682614850868816,0.17682609673750083,0.17682609673750083,0.1768260353998985,0.17649692098186298,0.16784586342350538,0.14646779393126308,0.11844543894218984,0.08807344207314283,0.058273046205889356,0.02918861182250021,0.009343106908217269,0.016019263503226133,0.032817536519129664,0.04595480003563468,0.05269081904641748,0.054501786664214125,0.0684120831417232,0.09766384160571251,0.13678125778229577,0.17613211382495741,0.21513723408479546,0.2542055827324412,0.29466043000634223,0.3373895344344522,0.377536934413927,0.42178474456681725,0.4621612132686663,0.5063621722895464,0.54857708547837,0.5908583988744189,0.6377271932495334,0.6833540856424409,0.7229778686961044,0.7690427025652176,0.8158539155589748,0.8571125268882074,0.8861852775784536,0.8681975488288194,0.825845955069447,0.7856962774128597,0.7392264711133618,0.6977275865195811,0.6546965658792285,0.6077891688435584,0.5616657441676256,0.5220147672856341,0.4764735522652579,0.42976427582750176,0.38899443340511786,0.3451988924566425,0.3025216549137184,0.2607212315459291,0.2161795133099682,0.176065126868445,0.13324527319451684,0.12370393023591975,0.12540262731136176,0.12908255562588278,0.1293601700232765,0.13892908054795283,0.15573765800382455,0.148069486656059,0.12800379356894687,0.113980551191041,0.11927202958143468,0.1248829044237938,0.12911680489230837,0.12941719610200897,0.13578006889569783,0.13865485154292578,0.1348030656247594,0.11190944455095364,0.0798968462757621,0.04942887966791809,0.021052662943593203,0.000623880016531686,0.0015363585044796402,0.01864161095370509,0.03434041994306791,0.043616127967619045,0.049320968324838343,0.04763010984191296,0.06779088173402736,0.10007198070954004,0.13747365667829947,0.17677825609909648,0.2165367669764986,0.2561546551866174,0.3010604939432209,0.3470158190472963,0.38653341667605967,0.43228505843386,0.4740917341375859,0.5167824086353057,0.5620389810122155,0.6017637697139551,0.6480459827300324,0.6944036086079082,0.7342298266513614,0.7793632211461425,0.8258349826223175,0.8656429857993404,0.896622927405162,0.8824330999187093,0.8418231617897145,0.8008079510643424,0.757354482039313,0.7108348728767246,0.6707411177748643,0.6260587174230203,0.5794517260319514,0.5390725118392032,0.4947424783969494,0.447805898335196,0.4008577459375533,0.35391213886995976,0.3083204250702454,0.26876278748949933,0.22376833679150043,0.18428644788564252,0.14212535967494166,0.12958227318718474,0.13573892189000358,0.13868111615295908,0.13933706663665424,0.1507326477862989,0.15416289025678132,0.1362878647401271,0.11708115834899036,0.11761879432345657,0.12510973028093098,0.12519870229393626,0.1267624458694503,0.13242317078445542,0.13849220245621363,0.13829317883415082,0.12692919290173021,0.10156716221767703,0.07072736350606279,0.04173947871265371,0.01476373179239654,0.0,0.011651539535141975,0.02788597338413701,0.04299785508582077,0.05172287011720922,0.053708021517341775,0.06629293095697997,0.09486169335208139,0.13109458330930046,0.16866155482251188,0.20756099819946594,0.24686506228876381,0.2888253929306779,0.3305086071810368,0.37347097184819034,0.41489902419705493,0.458117288515719,0.49930846007880314,0.545320842414774,0.5848685977185293,0.6304800173672798,0.6774233424612974,0.7228789495125458,0.7625571202228667,0.8087389458779317,0.8551711053819824,0.8944012757350077,0.9149112238378831,0.887159949043532,0.8453770745029308,0.8034635970838788,0.7566309538962639,0.7136562486590166,0.67211113197746,0.6252818757109952,0.5784444940439799,0.5367080357350167,0.49392050910977736,0.4471079194247962,0.4058647587308959,0.376458599238249,0.33620167234828857,0.2966149387023447,0.25057784293421714,0.20954292609459402,0.1662016186594184,0.13349208946422797,0.13725883674488126,0.13869642216029776,0.1387604301637393,0.14461682145434485,0.15601299954897496,0.14567730246963273,0.12450007961062304,0.11313651992889096,0.11923421381390686,0.1196359853572706,0.11963607032954537,PM
