0,1,2,3,4,5,6,7,8,9,10,11,12,13,14,15,16,17,18,19,20,21,22,23,24,25,26,27,28,29,30,31,32,33,34,35,36,37,38,39,40,41,42,43,44,45,46,47,48,49,50,51,52,53,54,55,56,57,58,59,60,61,62,63,64,65,66,67,68,69,70,71,72,73,74,75,76,77,78,79,80,81,82,83,84,85,86,87,88,89,90,91,92,93,94,95,96,97,98,99,100,101,102,103,104,105,106,107,108,109,110,111,112,113,114,115,116,117,118,119,120,121,122,123,124,125,126,127,128,129,130,131,132,133,134,135,136,137,138,139,140,141,142,143,144,145,146,147,148,149,150,151,152,153,154,155,156,157,158,159,160,161,162,163,164,165,166,167,168,169,170,171,172,173,174,175,176,177,178,179,180,181,182,183,184,185,186,187,188,189,190,191,192,193,194,195,196,197,198,199,200,201,202,203,204,205,206,207,208,209,210,211,212,213,214,215,216,217,218,219,220,221,222,223,224,225,226,227,228,229,230,231,232,233,234,235,236,237,238,239,240,241,242,243,244,245,246,247,248,249,250,251,252,253,254,Target
0.3919229904014081,0.38150958341417196,0.369583359613447,0.36516448958035186,0.35633650811473494,0.3342894184953247,0.314567455682385,0.33369756829078545,0.36056508043031554,0.3755732664153788,0.33198950365652813,0.2451900150406483,0.1559523521393258,0.0691288588081358,0.0,0.03249762082919738,0.12144433360371076,0.20885516108636937,0.3040828426754887,0.39909865895534624,0.43534447075845195,0.38053311963119985,0.3290862337247846,0.2961907421750296,0.2707055412096975,0.26838547656884515,0.28513273336251643,0.32660627492294614,0.38721518887177764,0.4579341412059801,0.5217400124471085,0.57447967885106,0.5580781524536649,0.490544821101377,0.43308846651359634,0.3850860128905311,0.3605620244864247,0.3621341805953229,0.3529551221340208,0.3478064775128762,0.33536365363079357,0.3095340727402722,0.2717809121010841,0.23849635901954302,0.22059689525309745,0.23188826123184736,0.26895956346645233,0.33443133307280926,0.39857052535218074,0.439061670953814,0.3890079175247938,0.3015121411852393,0.2117682678475421,0.1494166588031507,0.18766797932735635,0.2726787742761134,0.36822454910713187,0.45571087754555606,0.5509584716297313,0.6463869879123694,0.7098497540488524,0.6756562662203693,0.6056411851149832,0.5819594841870375,0.5964573270249991,0.6076966690444334,0.5994705163053253,0.6103634755673797,0.6496703959869481,0.7019404447716417,0.7152609163041146,0.656109090054231,0.5858460706344508,0.5256726175994388,0.4677171514911884,0.42397412260938694,0.40413280758481207,0.39739045520643757,0.38624456512678584,0.3749009024945118,0.3595081815356851,0.35131706015153874,0.3250899476499298,0.3211747048308684,0.34034650121607113,0.3656400545443619,0.3800506680995941,0.34097811764825625,0.2561005118341293,0.16385529779789687,0.07673320297103658,0.023176378540288756,0.0727455886215862,0.1595611483975492,0.2548133437479394,0.3421415395267018,0.4381830731442662,0.5356368156602227,0.6078062948896079,0.5612835764061299,0.47922572239844374,0.4094685019886519,0.37397089567812447,0.3679448982168734,0.3594435822992952,0.37683681274533143,0.4029816145928691,0.44618845915671734,0.49747278527197825,0.5493660737915302,0.5677941479878696,0.5131644691872319,0.4589864487451192,0.41494597941619826,0.3871955120787103,0.37502651552031674,0.3712570581147321,0.37374368333286956,0.36113222036097214,0.36416720880089937,0.3442424830450954,0.32011384313827485,0.32591734577489495,0.34563717539331984,0.3697105327917716,0.39550911120987076,0.4328014452136868,0.4298302555450104,0.3986502392228517,0.38006262853162687,0.3767521590412706,0.405790501665495,0.41204699768579633,0.4172278803161844,0.42453936077772836,0.4225303530993898,0.44272124434783366,0.47849346109064284,0.5265254713584238,0.5868389737604454,0.6324395214223522,0.6190580189772734,0.5711569195016031,0.5162556698247598,0.46798744592766095,0.4424577581710776,0.4191831234065826,0.41928255999657127,0.42618408952897724,0.46703409651325467,0.5464442847765714,0.6332240758777417,0.7235127503411665,0.8085787578014516,0.8632636214558684,0.8226001756117984,0.7367528571344906,0.645295055194127,0.5477835385751058,0.4501613970782117,0.3525538387614242,0.2637401737629488,0.2795202299598638,0.36266974062815605,0.4321821684710412,0.43966844281204587,0.4298939129843138,0.39829060321692245,0.3823426897241067,0.3753523722894676,0.39419751931511327,0.40945484132380594,0.4179681297250326,0.428304668165723,0.4460882652075848,0.44363537213119564,0.4616123028836103,0.512832161014309,0.5709152541027853,0.6342889028135779,0.7011907482333868,0.7640088306186823,0.7819150850876717,0.7432604855719998,0.6869771589149627,0.6529199533037922,0.6546021263193511,0.6465259338777183,0.6351024229118911,0.6408574939433742,0.7119190109304636,0.7963217557636639,0.8850166172513307,0.9684845907392265,1.0,0.9348692361019122,0.8403187928427296,0.7543311677630098,0.6770297190977383,0.5869019016470642,0.5023281380895863,0.5171734938824062,0.5362085439817839,0.4835379421039341,0.4209623422787163,0.3621840171350068,0.29915753397858813,0.27198654768180086,0.2818378569137727,0.31805991382041565,0.34899211565062593,0.37047036407940226,0.38405803625353263,0.3884174565228844,0.3951140563092532,0.39944876501477067,0.425131702733208,0.4781900279018565,0.5378571831229579,0.6005122751232004,0.6360569535637293,0.6050917206123843,0.5450407562941035,0.4810338224429933,0.41617795916234224,0.35388776186286863,0.31978016695483635,0.3211689943028575,0.34069619253078187,0.38124670367565594,0.4502291796191722,0.5335582401540289,0.6074188596072156,0.6881473311148545,0.7764078945029653,0.8382047875991869,0.8026332144291333,0.7132631411944272,0.6160155782978021,0.5262972547614888,0.43413114491695204,0.3390040750179111,0.31599674465424243,0.3947842063938354,0.4431997844194484,0.42519238235095047,0.40553917520911575,0.3753401378321861,0.35742945775376667,0.37801351173117625,0.39722043014266006,0.3986463812299945,0.40760417165733065,0.42226075333327184,0.42569658151456835,PM
0.4238663196217929,0.45181637820839793,0.4148264485323949,0.38648069546338526,0.377694426773973,0.3768764745350679,0.3778569275419654,0.33642819309888017,0.3027651927439474,0.31205232929130133,0.3631455072834293,0.4275127039710407,0.46269124983187915,0.4512161108259307,0.4242671746316038,0.47588647236577053,0.5496417333707382,0.6543680696210568,0.7622083404540807,0.758356727024128,0.6494869344221659,0.5349378318554545,0.4259318267315715,0.3274160055066404,0.230596535761054,0.13006952132981064,0.05003395104182484,0.011438586024005382,0.0,0.007401235356622848,0.04205113085288348,0.10492318569132841,0.17512474541605227,0.25942450201351486,0.3474729952188351,0.4095252359977932,0.41401595601799945,0.39043235922929354,0.37143119215029063,0.3740888462896228,0.3586312998537369,0.3165142115577093,0.29916822108327246,0.3314824269394676,0.3964440689126323,0.4393153742818976,0.4665917822207626,0.4721544585411568,0.5149953988968496,0.6018742246176059,0.6919671399204597,0.6962083896294939,0.6022548308940077,0.49771254716131175,0.39993874587395783,0.30180480157261647,0.19316017466535085,0.1173938001082373,0.08279203754677233,0.06716287722265779,0.07348377261841854,0.11644160628413847,0.17661532034360983,0.25758260219233176,0.34271875058583534,0.41995574793460033,0.4835493484089639,0.47268999512309584,0.43444699612352444,0.40549502327194187,0.3895525444730725,0.37529630554438764,0.3267360851277017,0.2832664906212856,0.28539602493241967,0.3319908037439636,0.38989883533015357,0.41199708074113595,0.4224457204681329,0.44167069092172406,0.5220478462540306,0.6040948143190388,0.6627350365674349,0.5812547298624877,0.4785363747700826,0.3793095138625362,0.2816296833210452,0.18687142700693116,0.11015115407707876,0.05597415748246792,0.03130875151960888,0.028095966535665706,0.04166764094208952,0.09752950578229491,0.16850221295152856,0.2480989740294719,0.3335697133112481,0.41267186184184457,0.433628388357175,0.39073319557037456,0.3591789108019716,0.35288276189590073,0.3647574065910968,0.33889666849801214,0.29628652775064435,0.2817842838448703,0.31891829291117446,0.38490365934720083,0.423904439116912,0.4419827347067269,0.4384105997709109,0.49908245917806804,0.5868957308525431,0.6723236836274302,0.6508672511873215,0.5494498473954517,0.44747873539596705,0.3416179369956649,0.23571730866834306,0.1377048715890723,0.07232572213530819,0.048631783449951005,0.04979079434252798,0.08180374671645385,0.09566538532077118,0.12115499950902331,0.1939066306345727,0.29461725668391114,0.39363964559108267,0.4933784376565664,0.6044618864151903,0.7129509729930263,0.8164995902165142,0.9141269310248541,0.9189709192544182,0.8288879660346002,0.7178286703203125,0.6184731232463765,0.5322883978545705,0.49272496425514145,0.48204106860005025,0.4546077657035825,0.3912829541025884,0.34439364041161147,0.3553067379110444,0.4012387542066995,0.415110682405059,0.4042478936782059,0.4137743437784045,0.452228629609043,0.49655743063989854,0.4999272495615026,0.43888810740219997,0.35928687659149006,0.2769953035951134,0.20076067673517128,0.1313653109303945,0.08212803501504995,0.07744843422835679,0.09994356465086351,0.17504063605874576,0.27372256661911587,0.3724827232953598,0.4701392534100588,0.5719140111871508,0.673753652482842,0.7737793293095336,0.8725614903114418,0.8694350862690872,0.7731784745126862,0.6709431737234097,0.5891067174063189,0.5068745000898014,0.47290155876782736,0.4585392628215277,0.4276496491580013,0.36848631866471093,0.3377552522698406,0.3722518579890477,0.42210750470772407,0.43662246980172226,0.4540342770839718,0.47888125594658915,0.5174408756428797,0.5562266963637481,0.5387310490250643,0.4774524280713326,0.3979705866926899,0.3106113279140055,0.23501759203026484,0.17033796455231132,0.12754606354974118,0.12453302188427795,0.1478639271766986,0.2150403214614025,0.3124148271523466,0.40337949113021576,0.4896340679311826,0.5938641314054949,0.6954627505874238,0.7974551395309195,0.8932863573069181,0.8965136034533439,0.7999274293595451,0.6933918041129377,0.6176820167669606,0.542555504649147,0.5161462043238654,0.50098132223044,0.47345206114031235,0.41455868269781737,0.365350455768513,0.3745665460614438,0.4165059326867029,0.43430826070052797,0.43590691617739497,0.4504109039130113,0.467808782534028,0.4616958870983683,0.4016217255416987,0.3248795929084034,0.243305103146652,0.16872775994662126,0.09769296037515973,0.06146373440115083,0.055995044715381415,0.08447181230417034,0.17284062967082958,0.2743133042854269,0.37126440912001124,0.47372796535120854,0.5832800476060158,0.6978067679828222,0.8077207553810961,0.9167266354868944,1.0,0.9653141513658929,0.8614683158357592,0.7494351424105137,0.6382557302463003,0.5603391232019321,0.5123278867020615,0.522220174091335,0.5210762094040491,0.49435904538138686,0.43299989228460944,0.37562983391673344,0.3769961075937065,0.4327492779927091,0.4559834732327679,0.43778239864979884,0.43816688309544416,0.4628939406369428,0.5072645261639317,0.5231928052757144,PM
0.0638788988781187,0.08138601314493576,0.06298699189223367,0.0784429616716551,0.08117847437022951,0.079025755150951,0.10791107500251562,0.10243834542221997,0.10013171735991522,0.1182365355779369,0.14048657958498478,0.19370371915077933,0.2638222913572521,0.3372545015342987,0.40978396413095575,0.4831271679601026,0.5533734267808099,0.617958647578764,0.6120393061519438,0.548579001667796,0.4783821163906159,0.41754545257862463,0.34809143884823524,0.2788040417682458,0.21870706471726686,0.18501842626289466,0.18758891309927894,0.17942861465483562,0.18866595344473436,0.2331774275152183,0.28708605393225506,0.3453815597394525,0.4039720634007111,0.4083720794595147,0.35314697760701064,0.29655335959470186,0.2454577093771928,0.20698014373702533,0.18414988350501926,0.18999591976958796,0.18557570494464537,0.16179407038482485,0.13080478333645718,0.09311396785177983,0.05632133620139679,0.034925113152531106,0.035612994371522544,0.07600645998218036,0.14630243263993137,0.21858720191218284,0.29170820578297896,0.3614538496255797,0.42112695491768126,0.4923897021924075,0.5594218512511917,0.5383680392026284,0.46304165252363694,0.39011917674153174,0.32379010362317984,0.26536120916685757,0.19507760823134057,0.12620582292789861,0.06313469510553027,0.01779685915269702,0.0,0.015880409711816257,0.0721716548079454,0.12263997272879279,0.16626762779217974,0.21673596376440973,0.2745910333799275,0.33635380707660434,0.3970995369006576,0.4069542523278029,0.3544382900758285,0.2939871553202835,0.24470704222462314,0.210857516596193,0.21038950235200793,0.24171757761009416,0.27469330661405844,0.30326583141276653,0.3037551756951513,0.2720958622469378,0.270471252570049,0.2952176564499651,0.30174048711718027,0.3331756551187852,0.39972061240538426,0.4725169522538031,0.5452703891804547,0.6221848732828745,0.6939131092252149,0.7612630202962682,0.7747896101638077,0.7072244199150752,0.6348756547856775,0.5694128983133933,0.5115163481041698,0.4402035974576788,0.3678030920290225,0.2953427940062958,0.23694381458291924,0.19379681159208806,0.15731063250115707,0.13548926875465117,0.1269279596074655,0.15702173934440156,0.20789794290327834,0.269357977693671,0.3280215975704457,0.3553175408589999,0.3097893091834254,0.2566981122195626,0.21627202483917007,0.2036594977948316,0.2173822694737204,0.2400452870218317,0.23607339030625663,0.22426279732664356,0.24760446361190458,0.29431481928148573,0.3485391307761816,0.3952308088066616,0.37650032335065964,0.3174423919245022,0.25605910333377424,0.19985823378168743,0.1582064672476191,0.15875709333937782,0.1811011318327509,0.2194501888655711,0.2676997838690869,0.33066492040927176,0.39975646763239236,0.47097269254290497,0.5435341666638638,0.6178851713050075,0.6858797047394238,0.7483044839706243,0.8218957988567841,0.898503278340395,0.9688930577950707,1.0,0.9476704568565018,0.8715285300964295,0.7941924431209577,0.7221170007791111,0.6545212697492273,0.5828520218017694,0.5100690937462677,0.4362838062985135,0.3663789023086026,0.3294083007882951,0.32394908380690834,0.29790441786286226,0.3003846609696954,0.33148133073651276,0.33140151195464984,0.3042612197823371,0.27121766873383724,0.23758611026735,0.23257084411616957,0.268808741983277,0.32004998026666676,0.3801203754386431,0.43914843625461786,0.465992214545516,0.42352293411112374,0.3620472342033696,0.30231970240073336,0.24382634425133576,0.1887049434961936,0.14571242856848343,0.0982331055896355,0.040403959059126304,0.027685938269899735,0.05839798998192247,0.1152963925938928,0.18702303270268783,0.26095920047248966,0.33322447078387696,0.4021900059487826,0.45888126523236994,0.5314058611130905,0.6068560392937858,0.6795821870240342,0.7475680722081552,0.7450051355356602,0.6768702120615633,0.6045442931693041,0.5314660711052435,0.45924348629020884,0.3900972033925727,0.3186290920353463,0.24635789323756674,0.17430034661219485,0.10215476895196596,0.05858558243056089,0.06558310967688064,0.09678773676613628,0.13464225739010338,0.16892597991676594,0.1963550210037901,0.21330760715454078,0.20884926341517396,0.21939188280150068,0.2554736946498559,0.30446323983837154,0.3637021050522691,0.423002107445142,0.4651215138527893,0.43915304986568904,0.3809727247036274,0.3212208093329303,0.2631873838639427,0.21457850540546053,0.2041775670785817,0.2121672938518182,0.21488608811556476,0.2657580562562425,0.3336242687028106,0.40403891100838973,0.47294713124839394,0.5317151333977983,0.5900432805175273,0.6561742943588962,0.7235795619850844,0.798966159022499,0.870781232275806,0.9195947395366664,0.8795685738123431,0.8082092464952575,0.7335873176268453,0.6610153693051048,0.587774384185781,0.5186337854378609,0.44710988928485684,0.37407631146819087,0.30004082433822,0.22659607869365694,0.16433666532690072,0.1404384222893107,0.12385724363984396,0.13015621400760424,0.13304950870847043,0.1497880396898923,0.1711164984338065,0.1453319701792497,0.12070619300619279,0.1279894128797303,0.12468263751744368,0.15771528367383558,0.16923759452415266,0.1369567176104458,PM
0.02161851708227447,0.051992581315042585,0.10956249247104166,0.18774388109786866,0.28418651533080297,0.37510352626677834,0.4581775200029763,0.44515899518629043,0.34159543984430396,0.2447505376437804,0.16129102418237284,0.09481130882838729,0.06279795043202752,0.04916065525158153,0.04036086980626674,0.05783173332832581,0.0853316376251616,0.06677745737785568,0.06106473500235632,0.061043756098883684,0.06038519797966613,0.04012741700635569,0.0037985129318354183,0.020698316185959964,0.05066629170545767,0.09015470117816404,0.07996552282804892,0.018300260264381585,0.04779557679010171,0.1685583089275844,0.2960920170254817,0.42827106981593444,0.551090643071003,0.6293899808257226,0.5414894800553633,0.41134619836554,0.2922118729566603,0.19704663164544067,0.12259555580191162,0.06403740556801063,0.036904171423151055,0.021284950524725232,0.04077659169553938,0.08699304502383232,0.15963386734938734,0.24262975314619517,0.3383961238371245,0.4287780469758786,0.4695256510014403,0.39113995008751745,0.28887478315543325,0.1968997836956503,0.11605626014816917,0.06850611484686331,0.06108559960986826,0.060959524660102904,0.053237744771350126,0.050443534439208015,0.06080984829457359,0.061043756098883684,0.061049790840536744,0.06366199481841095,0.06624003330054862,0.025847578677148597,0.011046581197721839,0.05116295082808531,0.055800976963416904,0.09636811967110015,0.0824955258490423,0.07075754618650487,0.17728852042695253,0.3047364871324736,0.43160709500814276,0.5522294264827097,0.573590533745433,0.4597838370921101,0.3392361295340556,0.23800272978904413,0.1524487718733325,0.09017442625595651,0.05039352349841186,0.03939343054570488,0.04524455510467451,0.08453636979052037,0.15601285574136403,0.24396245942846928,0.3359339051897585,0.42368609718959416,0.46854535561029653,0.4010301626012285,0.30631270204245364,0.2159417708298208,0.14063767025312224,0.09905081169364749,0.08340805457198286,0.08284009248648072,0.08346822666808329,0.09743209455964896,0.10481197690812838,0.11143206345410706,0.10579202372619534,0.10449598669132731,0.08831063435849762,0.03162096852860374,0.001042135135397082,0.01553492503173981,0.04264723296952999,0.06450136181309052,0.027674729765820416,0.040427952954206425,0.160712693465777,0.28973111000146057,0.42105539041561,0.5318940646975276,0.5407490459662725,0.42221733254930394,0.3027866056881008,0.2056118535947289,0.12121382435970807,0.05642508153709436,0.021622484506918838,0.0,0.010528714946106632,0.06204383140311087,0.07262167003987674,0.09622249483692347,0.1456039753696441,0.22601305054291299,0.3307879851628215,0.453721663493436,0.5783958661818018,0.7120540791614083,0.8364675070548859,0.9251500161832764,0.874957981523738,0.7506675662578166,0.6239429772329466,0.48986538281478476,0.36346068968032696,0.24270227334394878,0.17979073826541203,0.13598610932964306,0.0963244964683514,0.08337196029284,0.08371053457090971,0.13161000311815885,0.16026558155085935,0.1770157656112259,0.17805531272093944,0.16391509940003735,0.15696434302904771,0.15108424718540858,0.13607596972207192,0.1366483510186418,0.15464450372334326,0.18722213212769834,0.2630223616360494,0.35405575618722107,0.4506039151943404,0.5355513920152672,0.5601385466729951,0.4979647187462928,0.41580021227143504,0.32212295171866323,0.22480796648286905,0.15539590047863827,0.10408614485379264,0.10466561305390032,0.1265202285886482,0.17509438976284653,0.24843907203453774,0.34147602922480225,0.44172291095596883,0.568653643956313,0.6934064764924956,0.8252889132003842,0.9438580711355185,0.9848530737379928,0.897178262526479,0.7682636747826423,0.6445385989991248,0.5247102597459281,0.40125560819638206,0.2747187906552422,0.20493852636805387,0.15445435747544023,0.11958423566070842,0.10271666314348238,0.09105732058129634,0.1289999448699355,0.1342618269401461,0.11958244453409916,0.11339624852817831,0.11335447831320566,0.11335447831320566,0.11335447831320566,0.11392395786144816,0.12755489050289404,0.1446323295016958,0.20226948110760556,0.2933911530200315,0.4009827049657848,0.49516654956699035,0.5642952052066703,0.5523970215636971,0.47674029785118366,0.391198048162968,0.2983349422606927,0.20772970753500042,0.13433789044583966,0.0960246350185443,0.09447699532701481,0.12425388781397251,0.1878281040583829,0.2704986858240894,0.37229231724100265,0.49436224890061586,0.6202555172816631,0.7549568749073412,0.8809589790648431,1.0,0.9842887197853711,0.8664053630781332,0.7359598641415452,0.613131468814542,0.4924173480516223,0.3635468606746639,0.24989974362237755,0.17821669987330946,0.15017938268273,0.10367377394968535,0.07767344290315403,0.07976610856995414,0.11074506619539459,0.11335025673621812,0.11335455440981912,0.11439152066078906,0.14035671160390573,0.1499836647729671,0.12010164623817188,0.11339328195129106,0.11536646202237755,0.14523584617818752,0.2163777645840086,0.3059001040700373,0.4047931372303477,0.5011737228790185,0.5759281482064162,0.5503435871589759,0.4689550603458539,0.37853617531382033,0.27568322262826683,0.19176917617359823,0.1255178595908477,0.08129014427039571,PM
0.3219551658198041,0.4092636686173372,0.5063419123626396,0.5807617672843026,0.5395976244274632,0.45175589241913405,0.3582655973519806,0.2717160320932481,0.20085667468786683,0.14504510207411703,0.11452385920369546,0.10878760850555169,0.10155586558345053,0.08963673555957863,0.07025600287708955,0.04297411090431913,0.050918214392486894,0.08154734032708211,0.12319687376010191,0.21826389135754343,0.3272748971502728,0.43582404241096784,0.5457732531560819,0.65554532518953,0.7583097531872016,0.7966476503603501,0.7038307495013516,0.5918507413540923,0.48091131243050933,0.370488091382958,0.25830232586563984,0.15265379399030343,0.0672591942998475,0.013069583857620914,0.0,0.025893263146875123,0.0818107476920007,0.16323886139181876,0.25042485333901787,0.3415267999211524,0.43462610267883806,0.524767352081593,0.53080793399399,0.4478417751638992,0.3596072460025783,0.2702315414781853,0.19631759805892446,0.1435617636001889,0.1176705711867001,0.10677089503074044,0.09708303602437973,0.0852128252707478,0.057567973648190884,0.03410331761556207,0.0541067134982991,0.0775387247610928,0.11442858056495386,0.2129617989406496,0.32756573957892154,0.43637397508779374,0.5472859382157806,0.657845516736582,0.7585509728279254,0.7583409968488661,0.655449128159852,0.5416444351047831,0.432812932889691,0.3249319248040381,0.22002271799745765,0.11828811141731399,0.04004279216760387,0.00013141564378504889,0.005190765955917165,0.04597193231958019,0.11252032992468974,0.19063183430921704,0.2736377876120586,0.366939897676803,0.46095532808096573,0.5505121171236271,0.5672536418154075,0.48785694978190186,0.3988555610366671,0.31313968058781905,0.23038888743367414,0.1662204117484931,0.12340008570524108,0.10797882495901767,0.09864701028394962,0.08865737119137851,0.06545422191982797,0.041440570646249064,0.059690472377831094,0.08958207048503519,0.12028090469341945,0.21263530388318586,0.3198339865690665,0.4337328604594122,0.5425659247380481,0.654430030964555,0.7463323563526916,0.7103475157473356,0.6012370190140088,0.49109101678016254,0.3826137302936923,0.27333163248358483,0.17099870103529935,0.0831939421382133,0.024789722428786742,0.009985686933328353,0.03486167123113293,0.09188144924166575,0.1644603968929912,0.25105741653460445,0.3468871677203911,0.4465931863269015,0.53495455871751,0.5505577925528247,0.46780835252321706,0.3731543342715775,0.2859208012923222,0.20942547780527332,0.15122933174430186,0.12366070173450239,0.15727603566081094,0.2047204769895612,0.27666433321383854,0.3617494773322045,0.45176144146783725,0.5418842466258496,0.6166865333763338,0.6073707993286055,0.520182072724555,0.4232368706682208,0.3286800414345148,0.2375022903019237,0.15570704620460463,0.08592957140417701,0.04914340242470194,0.06592837146388231,0.13949247909701934,0.23712014346563914,0.34302143173222444,0.45199107420213736,0.5622868920358819,0.6713928655099335,0.7849703396249166,0.893353499117505,0.9740125897650294,0.9315399359029484,0.8314748991786907,0.7259840048702872,0.6177459133367531,0.5090774248146457,0.395441034024536,0.2866076608926318,0.18049692031955833,0.12641753890398966,0.09566281522595577,0.08929218326419242,0.11610405957200487,0.12823355850033957,0.1352050442579511,0.1458467725681516,0.16148799154956128,0.20889845173641675,0.27668045538345654,0.3635559963862449,0.45497218349353963,0.5431240006026341,0.6197919218492896,0.6222791294948133,0.5443618404478663,0.45063243729531477,0.354591356623025,0.2559802716207331,0.16868903768809407,0.09430984767840789,0.04398711972045888,0.043998516438619184,0.10068152088639182,0.19077753490826077,0.29254049935837045,0.4061634575866764,0.5226684636251315,0.6317025827803655,0.7455280470065953,0.854030104566295,0.9546369936089709,0.9624543146382556,0.8759737622929555,0.7726890158173725,0.6588799623394412,0.5499648178685019,0.43623592375577713,0.32762570893410814,0.22020060957786436,0.13404637043565226,0.10350058549882157,0.076547426162628,0.08959949269231782,0.11907750775620163,0.12869904513134722,0.14419701362619586,0.14724854413267696,0.16429598652671817,0.21325949045519277,0.28393826209542006,0.36918956327544405,0.46318915845151665,0.5507627278797083,0.6004620683849438,0.5546371519266091,0.465783410900229,0.3710127154349827,0.27936596366933,0.186480431691459,0.1079330323765364,0.05337416584446886,0.03889458137987578,0.0852977280807492,0.17028730743585174,0.2707014987545211,0.3784985460422412,0.48706601640700153,0.5996167285155369,0.708664131918141,0.8252655080850544,0.939584722002655,1.0,0.9349229408929891,0.8368847522567373,0.7364981211326702,0.6271396807992735,0.5184758202919233,0.4028493128437134,0.2876217863159618,0.1844375069717128,0.1266476288488989,0.10358410651905037,0.07603845155089872,0.10098460130704989,0.12317950788707033,0.1348682792098379,0.14785995214288494,0.1549573044846173,0.19029919767302816,0.25559993814085447,0.33353176145585506,0.4200986971653795,0.5149461470121981,0.6033334031355695,0.6471057143370165,0.5894156260767995,0.5062451237917096,PM
0.08990970939157394,0.07439429316522084,0.04677982586541818,0.010734209170160103,0.026346824741084962,0.06189368874717216,0.09680967002778651,0.10918257909667206,0.08955920217068503,0.03402932003272463,0.03299992853588174,0.11773777279218711,0.22159187221031518,0.32445078629108925,0.4229258932967297,0.5169038770026595,0.6075386393181201,0.6950395379452563,0.7701853708338979,0.7028924059643411,0.604420487225366,0.5017388599871118,0.41743141313564314,0.3344583797535341,0.24335295038101634,0.16373971798283415,0.09526562417401907,0.04394382080592685,0.024268543150603783,0.024935886855991907,0.040732248126203796,0.06329501856769415,0.08977765505289481,0.10970292285842254,0.111282485140352,0.10234504617043871,0.10793444017556597,0.10140465105322427,0.10957129631422902,0.11161538163922424,0.11161768537426608,0.11032376586175596,0.08866516799455271,0.04411732996404627,0.0036718000233690873,0.00833626158897216,0.04065910474914114,0.07562990894667365,0.09180386038717803,0.07510676574365505,0.02052590858140846,0.010794348836388856,0.09325193703538748,0.19522579744330093,0.2975505877942304,0.39953815995243014,0.4980700784579306,0.5892960513407406,0.6717677255774857,0.755699669585848,0.7297172543203341,0.6276731726218787,0.5289767510409344,0.4240682701912739,0.3276016243930644,0.23379551189774928,0.14887296606130684,0.07440343664571092,0.028661268230136816,0.007320440675058659,0.006144840622345438,0.01078477089773644,0.02731661232242244,0.061128620320296534,0.09502932694468935,0.11091046104904168,0.11161844661311182,0.11161836978794959,0.11080530341111272,0.09854350995062422,0.09406048845892068,0.0952278557601387,0.10744202422773164,0.0919739659306904,0.05295868175653107,0.02825217065326946,0.04105683587744391,0.06836822578079138,0.09296806598692431,0.09043650086002808,0.04969944545126115,0.0,0.052447215412258164,0.16084593473701192,0.2693615003359371,0.3677206294049289,0.4659837110784766,0.5581088662653135,0.6406547627242047,0.7200681047717512,0.7062725701406429,0.6092375136351302,0.5066042131065878,0.40800895171188056,0.298356910434618,0.20096451874164467,0.12457097593680677,0.0643703117677723,0.02717230707744056,0.0076935238766862035,0.009279544876315438,0.024610911948116154,0.047633718808111514,0.0812750672826712,0.10496906347641755,0.11152623463600486,0.10699221235915424,0.09482089143890082,0.09403540959202861,0.09404111393968995,0.0966569325914639,0.10924566518286438,0.0973289994520603,0.06794321160845485,0.025599734364385007,0.034541304934330164,0.0907808284362055,0.13007266901827164,0.15086300257560836,0.15298059715471002,0.14070889928566288,0.1362607970842662,0.13626824371784885,0.1413263117852721,0.15314180346895068,0.1538193196239348,0.15320032433489805,0.1365228873889639,0.1027772041731172,0.07238915751915176,0.0581284741230399,0.05635756139834536,0.07291361455210987,0.12013149434891313,0.1852837308291133,0.27242425065867826,0.3682888579880652,0.46678191553753123,0.5663611139341729,0.6661279628642132,0.7726021668198477,0.8830693957112956,0.9681881131552137,0.9714447824024224,0.8905506128297431,0.7934792170363543,0.7003233408238967,0.6173401583031781,0.515363865207306,0.4172510818584012,0.3209318279792104,0.2163041298409496,0.14041733898558162,0.1354756142723419,0.13619295184842883,0.12878896356822045,0.09285806007925812,0.07931154909308535,0.1078137118494138,0.14346756704240837,0.15371416747361666,0.15379906405770827,0.14997682366786647,0.14862079883436818,0.15376546153269555,0.1538196229762181,0.1538196229762181,0.1537911349800618,0.1487719654696873,0.12264111808950595,0.08855512067638571,0.06295145418486392,0.049020301985366554,0.05239000380984704,0.08219681448585137,0.13713919468628122,0.21360539587887484,0.3075921142264586,0.4151588045626662,0.514003269930654,0.6177068136494559,0.7173937276306703,0.8154562620197097,0.9145226232886556,0.9818481744034888,0.9490096461336899,0.8758956335642263,0.7893981996684287,0.687236997329153,0.6122944650840552,0.5229603459044818,0.42481160208197855,0.32051382047404386,0.22772618322876115,0.15954404690504642,0.13656228659610514,0.13618232675166775,0.1285802785661878,0.09028499134266399,0.06249005302088406,0.0891902396285027,0.13213652655133323,0.15278151392122785,0.15381889125886383,0.1538196229762181,0.1538196229762181,0.1538196229762181,0.1538196229762181,0.1538196229762181,0.1538189709950517,0.15287007503069372,0.13606513599944092,0.1091973125666712,0.08822345235109452,0.08357855328662733,0.09144922466962102,0.13259924050265104,0.207219836183973,0.2967653787356541,0.3897887726527398,0.4767717264746758,0.5561037227652155,0.6600669780711095,0.7601171289464523,0.8618942523907789,0.9553302588912751,1.0,0.9369214416894822,0.839414293596084,0.741782717264301,0.658276888094294,0.5712979728459358,0.47559975054330916,0.37736294758422106,0.278565663013016,0.18179266666130944,0.14625459846686972,0.15358504581933463,0.1524852805364727,0.12470212697194105,0.08147986810474217,0.06489358677824875,0.10169298458830633,0.1301033907807545,0.13618866170984267,PM
0.4136357468325129,0.4411053381584469,0.47440292729970146,0.5223914050392704,0.534050721849249,0.5030517513372765,0.46942951717565995,0.4409345777231155,0.4427014477304376,0.4360543862913073,0.41379925171806153,0.3708733303416736,0.35315149862184736,0.37874926229784167,0.4202908493466344,0.42413523674920706,0.4557538560225818,0.5061434330488379,0.43946120939024347,0.3408420529283851,0.29665157000299747,0.37311162609457016,0.4800062210953917,0.572766018838359,0.5405813461949056,0.460251528243091,0.4109249355691982,0.4073677888169094,0.4016850128960092,0.4258306684026709,0.46343962964394514,0.5028708349402113,0.5474062310090368,0.5630571899133558,0.5272879279776146,0.4844645468523052,0.46457408172288384,0.45962110289915215,0.4645658141774165,0.4398615508765391,0.4022002070668034,0.37020432711628803,0.3939975630097474,0.4244098882907186,0.43013330260157545,0.46150537587559803,0.42830417625225214,0.32453458092619547,0.2201359804008174,0.12034344657193108,0.1180561142335721,0.21973145462311505,0.3307100575455246,0.4328255079746355,0.5430393202820811,0.5719390190767637,0.49824555698335793,0.43008543042531544,0.3950026829948534,0.37364200580642226,0.39396326623711975,0.4208657369849127,0.4624762277954284,0.5132135545002958,0.5463822637755831,0.5265855325688658,0.4841776608035171,0.4474581000791553,0.4346053254685236,0.4387533565890944,0.43675746392246095,0.39554971762947444,0.35675763245423875,0.3505499684819542,0.3826659203412701,0.40975730309829306,0.4223368071157876,0.4225250981330153,0.3491850243699983,0.25006640210287134,0.13729487736194246,0.0369777367384283,0.0,0.07891825557550103,0.18520315580100766,0.290407853836105,0.40448843682053814,0.4916332217089998,0.46219010336647637,0.4196405308375408,0.40795083051936043,0.41742696215054753,0.4467428022996729,0.4819409609265808,0.5360674282637135,0.5862879985650529,0.5875190537906123,0.5446840690246866,0.5002591668388696,0.4693655568704149,0.45397430813460016,0.4646902330042795,0.4561842619491481,0.420704945647449,0.39142073418147394,0.3992101904087102,0.43531027063593486,0.46102511798373946,0.4699684089856695,0.4567977352622625,0.3536271265950539,0.2670959285484007,0.17891348279052632,0.13722571351662394,0.20736087532849723,0.317425850360217,0.4227374078461983,0.529793066293951,0.642934862790808,0.6871801452731336,0.596115757042678,0.5022702069525913,0.42785496066330664,0.417045467411302,0.4191681215495988,0.44404463133484384,0.4704387405689201,0.5135369681536845,0.5636221604369003,0.5561840252927457,0.5136423669080745,0.4893078011629548,0.4734739831102428,0.47252686056551063,0.4958065610127269,0.5837694200051042,0.6836644042689115,0.7963116975382483,0.9097971163683982,0.9987795889209297,1.0,0.9046951648810846,0.8032296487008277,0.6904910660770631,0.586652581262241,0.5897929638341353,0.5818680444400472,0.5232330778133725,0.5022413335353262,0.47286567757562503,0.4472398454383284,0.4729174351665941,0.5019810325562872,0.5104092123613753,0.5107584330868709,0.5232334232753586,0.5685826026634806,0.6137889105419476,0.652442171815907,0.6500296611003602,0.6056755532058404,0.5520442835838772,0.5060652718832923,0.472676964914414,0.4700306365840876,0.4728647436244753,0.5283646005251299,0.6168953302625146,0.7167305247420348,0.8165705724494794,0.8884032768494872,0.847220437699503,0.7429137834840378,0.6339157356006067,0.540932830096883,0.5447183497162502,0.5588416747397957,0.4922744970992001,0.4695198002866756,0.45517930099205506,0.415004979973395,0.4172935073646298,0.45893526626780234,0.4874300136247718,0.485693378400895,0.47863991462098143,0.5033668980303596,0.5459856533209555,0.5839066546206038,0.5947981602123931,0.5713292931698217,0.5206913684995786,0.474891168543786,0.4467527388665795,0.4380590148154053,0.46550515917746793,0.5269035451263901,0.6105022463066154,0.7065597083402095,0.8049457585777069,0.8834638596885696,0.8593115228805783,0.7536594578814828,0.6516030508950954,0.5388592130600229,0.4785772982797907,0.5556510161246662,0.6004375019415726,0.54947711083125,0.4926007101827743,0.4846169477975728,0.45520302957239966,0.4317454805842811,0.4638375491592539,0.5014414019951206,0.5219273172455092,0.5116754922645081,0.515035976627475,0.5466267134572838,0.5938450220474967,0.627551587464092,0.6183289387440434,0.5782052341873452,0.5333396154745254,0.49577747979651265,0.46635975440866373,0.47272789842824636,0.47756117127608055,0.5454846313733865,0.6423414559061129,0.7426881768049673,0.8456292691534171,0.9392432492967577,0.9552059914642088,0.8709550597873572,0.7598980293801594,0.6657714564951105,0.6184093445524876,0.5433506443850113,0.4918829250379262,0.48621776884984547,0.4432503588907881,0.41092148703239095,0.43542342124775857,0.4760694439060926,0.4968142770589372,0.5035225028392114,0.5010864836013802,0.5278915797654591,0.5660261449721555,0.5949841979513644,0.5873404954685246,0.5405925937213167,0.49968619096393674,0.4724864101073898,PM
0.0,0.06718760410737912,0.1495437985018493,0.1455457061142933,0.14158417121892852,0.15922019869384463,0.14492411882995548,0.08981941093591694,0.04122843234942697,0.022446171184580477,0.10518655988499392,0.15163737668600707,0.21982622002826635,0.3039862007478875,0.3928590567606862,0.48511041694256885,0.5753795001101321,0.5925050172568447,0.5198459114088385,0.4476804659794167,0.40041922316256895,0.36768796782924773,0.3643613339067653,0.37433407670381924,0.3793475354668663,0.3927699560993505,0.4342835514279024,0.4076458120935087,0.29955184825983383,0.20030282657554888,0.20200718884290825,0.3004840774782196,0.4088262991009579,0.5199896284280279,0.5559993359191553,0.46381506475654555,0.35466792970432626,0.25547215057301975,0.17567911935683278,0.11722153390284373,0.10324545743336366,0.11838522926685235,0.1422997446325207,0.2097816986062846,0.2937422872560871,0.3879369060391189,0.4861148279393477,0.5341098408383809,0.47867137927293535,0.4106666300457056,0.3613067351353505,0.3393191414044032,0.3418961975136934,0.3354599403869789,0.34527449673878974,0.3535497403720551,0.36205301020281033,0.3684212358631307,0.36262967711450345,0.3728686341899856,0.3891659749523646,0.3887336507395227,0.4266323677474031,0.41768949457444227,0.3077032786061975,0.22548553017798345,0.26979491103665976,0.3693531877628973,0.48087814002928675,0.5545307954478689,0.4807382691014188,0.3771809428278672,0.2830961658217921,0.20895476921999356,0.15634223822187443,0.15447260366850313,0.16292875165086662,0.16321771375668948,0.2294967898786442,0.31642585748816443,0.40792402085546775,0.49531835010644776,0.5309228834935025,0.4679274866681389,0.40635545188810496,0.3658010783430552,0.34849573105567466,0.35102391074187245,0.3780455966291434,0.4039555633991945,0.4454756510736535,0.40201916393341564,0.30286415448455917,0.24076165261009375,0.3089238075647056,0.4068579945579571,0.4098150585892635,0.31067838344675436,0.22733140201654467,0.16185500064009228,0.11299869107073346,0.10587255778377336,0.12648496561063882,0.17964655573951283,0.2558440489995768,0.3402248900366225,0.4314556322361487,0.5234559419892026,0.5598400532677876,0.501349595249817,0.43214429529775233,0.397549365534579,0.36848427878581735,0.37396604023807645,0.38959989379670756,0.4007512724924489,0.3952937590495613,0.4368732428689668,0.4716342452279514,0.5029007832555881,0.5833457672954354,0.556002364726125,0.47378938610914534,0.4391541418812148,0.44300231839530047,0.42379922985923124,0.4106687440764396,0.4291418169882155,0.46686324274185975,0.5311139478979576,0.607236113863937,0.6376416110552212,0.5724360100359862,0.48539680794912665,0.3966905202462401,0.30886478931955197,0.2277759221680029,0.16449312829170837,0.15056418467934551,0.1792411126318909,0.24007809051616813,0.32750794036693764,0.43208069399720883,0.5394767702229075,0.6504733263205289,0.7584086291565864,0.8592346557925155,0.8785679193949789,0.7812493430745955,0.6713687993896242,0.5723492274213313,0.5011399054458898,0.5371931274073811,0.5033651439144584,0.4429414245229075,0.4118464776224593,0.38580142302013987,0.3935423464101502,0.4229942309137533,0.4795889986044719,0.5522734890010514,0.6050761266611537,0.5747323401258686,0.4946067663027305,0.4034570406474478,0.30710563294180626,0.22826578115417795,0.20792740055866088,0.1971516723377047,0.2066253200576169,0.27200716431134553,0.34875550306331804,0.4489370528575536,0.5580383795387067,0.676027407615128,0.7934639006803981,0.9016271185450984,1.0000000000000002,0.9939375526745058,0.8962998996078244,0.7800326197092062,0.6717292352292927,0.5567816430518568,0.476418944565445,0.530140790126872,0.5340086815344118,0.46281180930542143,0.432634278976449,0.41198965744366034,0.40975418941095154,0.4158043223313552,0.40751491297237386,0.3952661994926119,0.3842056004579637,0.38089098690181955,0.38099037932505797,0.3912010507446386,0.42384172790847585,0.4786699756637629,0.5544742296776779,0.6073099358454968,0.5694310982248976,0.4820404042817772,0.39100069597296216,0.2983377776266718,0.21666143171084262,0.16037620181272527,0.1499711579378633,0.16505665789891544,0.23385680683384247,0.32818780955802507,0.43226728362119293,0.5413065179403638,0.6528932929560243,0.7629675651672618,0.8747833224611103,0.963613662740346,0.9410499173268219,0.8348473512991241,0.716566581982317,0.5982654229317028,0.5027188549400392,0.5402878974271201,0.5577412764526681,0.4839222659655509,0.4347575415665046,0.4169557575936793,0.41317168203575894,0.4102905841095834,0.41224563535404823,0.4430890599571564,0.4934780489093391,0.5719043602269818,0.6465757936439671,0.6750333729632334,0.614282953222429,0.5225402983319831,0.43087967933192783,0.3381258305936401,0.2473211332087215,0.19756795549998674,0.2283923983875955,0.20559554689282522,0.2157246702542992,0.2778968369549053,0.36700845397193604,0.47091394159587696,0.5786956668094441,0.6865061614290895,0.8009197806418606,0.909015191964518,0.9857512441152234,0.9267277142468451,0.8186214072861764,0.709578989323693,PM
0.37018365327599856,0.45233446284367673,0.5256771303575505,0.533869563625395,0.4501197093247167,0.36364166772828455,0.28377496699593285,0.21949787430023493,0.16791433383950993,0.1325970805122516,0.11819377781621432,0.06912411500870919,0.030008642699964616,0.0,0.06535757849726442,0.09096924757773417,0.07897661449718596,0.08605524521260843,0.12021153351909275,0.16880597767919747,0.21784378257912262,0.25302906053314933,0.27578043233780214,0.3024618771975125,0.31233639025426685,0.3286541738490949,0.3215456281743361,0.28824588692181496,0.26999341054101356,0.3006439745429961,0.34495315822634476,0.37347902202501526,0.4309284613738775,0.5118966581240634,0.5951069848976189,0.6681124276737198,0.6929881965301701,0.6143589604670758,0.5278431575395293,0.4446457728983808,0.3805968867480063,0.329827450653156,0.29112670130120977,0.26858727521171843,0.2504444984807015,0.22522864231869955,0.2262940514898748,0.25414489264103013,0.29317061531851607,0.3414003923673148,0.37143501258011513,0.3746426598691359,0.38004589894443663,0.3960459952550113,0.40096772211899046,0.381449233528218,0.3413816422090261,0.3253752546082347,0.35553919740810924,0.3979226133993934,0.41519526669491125,0.468355407487723,0.55103783072814,0.643638396410223,0.7275387967525595,0.7888223184611372,0.7652094462171051,0.6753597468278087,0.5877321883917763,0.5061680592038642,0.43991034863509304,0.38953578980115156,0.3595904585107732,0.3230311999109987,0.29591069458057984,0.26512506566768756,0.2454368984820765,0.25185611389306484,0.28342181297930136,0.32758686254552494,0.36793428473235323,0.3674364464190969,0.3478394994070979,0.3456454028920528,0.3403836775136102,0.3102994838384978,0.26620899890631344,0.23897723863778175,0.26040121020717777,0.3039489300079228,0.3154076832433339,0.37188314270359335,0.46466176027588624,0.5388763262243983,0.6023347217590214,0.5895578633183431,0.50092539416974,0.41221082494443495,0.32674090340483986,0.2544212311603773,0.20615797225956722,0.17881496074536907,0.16157378694530644,0.13826908537660199,0.10130882138940578,0.0725292846477048,0.08970985421669608,0.12047466893596148,0.16477822129411202,0.19412394251301013,0.21649582051678795,0.23143027102457836,0.2591519262068567,0.28694739805803904,0.2911562189109578,0.2600639208120268,0.22759589930663982,0.247140383414151,0.2963174937514452,0.3352569324484662,0.35081362923443704,0.42184228332254925,0.4961531665063674,0.46164643719217446,0.4008134247811781,0.3718236138847413,0.31921236253308827,0.28235146783981646,0.30787322084518554,0.3423917655670734,0.3504514940074417,0.3291908891513877,0.29630135646570555,0.2800034437271979,0.25577386322444173,0.23088098525393352,0.1905887028584754,0.1508020441280018,0.1337608017953804,0.15803638039084333,0.1982191547271417,0.21669060422439967,0.23086606657316366,0.2649601102445649,0.3207074366427074,0.40883458426342134,0.5044005347717726,0.5919262306340625,0.6793263036289421,0.7686884319122398,0.8388423753411476,0.8218905861448818,0.7379796854739427,0.653278105641963,0.5784517074150801,0.4952953668389779,0.41102975424883503,0.37581941330944435,0.3471822684106729,0.30844957323814537,0.3235121131364376,0.3642799957975327,0.39280105095808393,0.4048148107080416,0.4066667098060881,0.41218327958784196,0.42610292745055434,0.4342500322380727,0.40661463010856913,0.35726448566700064,0.31835592600560725,0.3038388942960286,0.3236086219647021,0.3515028226539463,0.38469668328052053,0.417387640971735,0.44948852755950286,0.5076038867654922,0.589882896153116,0.6781593794744873,0.7681010939316959,0.8573757579945536,0.9413467701143556,1.0,0.9632311235254951,0.8785219761092331,0.7950661577325366,0.7205144160127284,0.6411869632072564,0.5692476992113367,0.48730178984512706,0.4585920209423606,0.4277251455683322,0.38390056788587135,0.3932327480787001,0.4295787985697679,0.45638460293332406,0.4494003587231856,0.438211645457772,0.43567610557434655,0.4303285519065767,0.40407320037159167,0.3614747855205036,0.31861129198497373,0.2859057652503889,0.27917780698747974,0.3024506899331878,0.3157992001089265,0.3396760145116273,0.381971350272885,0.43877494589333876,0.517702939666298,0.6057938566268684,0.6937131669412362,0.7850710734967796,0.8716046986325212,0.9503871526143977,0.9561843111197743,0.8764531869156498,0.7841103320880132,0.7088398542226901,0.645231983931807,0.5764717892034725,0.4905734485050095,0.42795071870895107,0.39489709891283553,0.3483856641768299,0.32788723794254615,0.3568216978350831,0.3754317451533331,0.3736308326826907,0.36357891397825837,0.34335427847446853,0.32643189900375935,0.29638732937596846,0.25280454972340527,0.20190168816650234,0.15685728829988044,0.130491436667584,0.14081721351456888,0.17060747743289006,0.22043748193328527,0.20305583129990668,0.22015899716853982,0.2710395563326009,0.34227400106976624,0.4298766744656044,0.5177072266535401,0.6104614557189527,0.6970594509886858,0.7814919915559972,0.8289051368861342,0.7704316861570968,0.6824334867215578,0.5986679297215773,PM
0.4912897661329859,0.4373951306572491,0.3813801680469727,0.3259598871092889,0.26767808082690225,0.20987556041151664,0.15546649941862914,0.09799741993236458,0.03999446070802337,0.0,0.029917671922775307,0.08391492876621767,0.14083915483486567,0.19922259193811406,0.2576193673771642,0.315973485377521,0.3721511878706356,0.427428968827378,0.4856912181196763,0.5440870087582016,0.6016785929625538,0.6500446316308579,0.7028579682539705,0.7609537138405817,0.8050894351931626,0.7826819118528949,0.7374289586468825,0.7056727037888206,0.688642085032355,0.6737993621074859,0.6755404224780323,0.701211319258819,0.7371190858395955,0.7765440356682718,0.7953508842659381,0.7648220814178994,0.7227177954767462,0.6973975785768308,0.6873944876241134,0.6923562252891382,0.7038160812260719,0.7131986996253776,0.7138647045002078,0.7024423938871691,0.698999744139398,0.6963452972583656,0.7057789430949085,0.7070681047604221,0.7030145942946326,0.7192320741741329,0.723124997913722,0.6828433155022675,0.6274830809298982,0.5719209097317548,0.5154050126816374,0.4604915671651493,0.4023159204701412,0.34464788203803787,0.2902670139664911,0.2326357000707954,0.17426573316603802,0.11770704200254686,0.06371463978760042,0.036296975304446505,0.07811881569138371,0.13553190950379126,0.1899114325692526,0.24756465248235784,0.3059589203794887,0.364355695818539,0.4227524366519564,0.4809556879763057,0.5359650750421215,0.592454765799922,0.6508243220001007,0.7092210974391513,0.767444053767058,0.8187620841932197,0.8296519964382068,0.7865081869754481,0.7492842427376865,0.7337527364627537,0.7207495087266181,0.7120597180159377,0.7242771479992901,0.7550960061787579,0.7914174958042491,0.8051247885302514,0.7737003916774128,0.7384290585935047,0.713709104248279,0.6955532138901437,0.684755456911323,0.6820692905869794,0.6881256370093383,0.6928733952621509,0.6998538624753745,0.7129477531749409,0.7135554778044321,0.7145694060418398,0.7223788565744332,0.7207573508878332,0.6758745305450795,0.6214957827139957,0.5663473695046374,0.5098897459381162,0.4549763161514617,0.39679931240673805,0.3389152146635148,0.2844687971601664,0.2271173854978518,0.16880186542842493,0.11326215200772347,0.07135321147115539,0.09287220298112073,0.14958787546568073,0.20783399846711945,0.26302807530852446,0.31929733290998086,0.3776571835574336,0.436053958996483,0.4944506998299012,0.5525558562883409,0.6047016870068421,0.6586988292013662,0.7169876361968698,0.7736957048651685,0.8282569542981693,0.8652517408926017,0.8313299552185935,0.7832074557304533,0.7473740272040066,0.7286448801100557,0.718695465149485,0.7199505348425861,0.737117413124502,0.7706962822325412,0.8067077686036983,0.8134550259501889,0.7777185776712866,0.7379889845429785,0.7114891059129088,0.70250027103496,0.7118467635865315,0.7201114082119132,0.734119796301107,0.7671423855450886,0.8095212923465802,0.8386099419350705,0.829873526175555,0.7948225966993705,0.7587573794953997,0.7372365469864289,0.7371328408858348,0.7480081477874138,0.7753371616717121,0.8199531741789448,0.8711687400329564,0.9246032484308628,0.9722899461120886,0.966055114396531,0.9147330620690399,0.8584805919080034,0.8039165611278091,0.746845363495713,0.6889557245577034,0.6344980050536347,0.5772262935647443,0.5288245140550745,0.5473033831533566,0.6029361919512585,0.657173604196556,0.710516841699169,0.7439225511279426,0.7414675624671155,0.7365472928445468,0.7299745822059209,0.7316576645515201,0.7212210683941644,0.7092482885124209,0.7051005618311798,0.6995021010166919,0.6985291959328478,0.7084982026614114,0.7258214241613102,0.7493886512912258,0.7859078962582736,0.8214853878257538,0.8261975176318146,0.7969058024742398,0.7597111627588663,0.7332138756728314,0.7337074856846684,0.7466509036455328,0.7627026070144823,0.8006905395721868,0.8513316582464432,0.9051140287012416,0.9590531395387103,1.0,0.9762268296816017,0.9230653254143222,0.8663017586125261,0.8105607840218307,0.754884188985237,0.6965889428315306,0.6399027998189586,0.5850500927861081,0.5268932658131863,0.46851820777905284,0.4169197632878825,0.42972721786152046,0.4862458760251719,0.5418017164053273,0.5975124928578294,0.6524153277207063,0.7045888830905217,0.7390434491095617,0.7371418073571339,0.7229633415489591,0.7231780151476244,0.727217864342146,0.7158662694160982,0.7169897775516363,0.7169728041568504,0.7280099877748011,0.7319295446232105,0.7240961224045103,0.712061547881061,0.7054288637741812,0.7099027180597196,0.7348226452846802,0.7751127962467511,0.8150451559292056,0.8202176267086174,0.7879172132398589,0.7502311892874387,0.7134466852911385,0.6885165230491755,0.6943650867381292,0.7110824833351224,0.7338118315263036,0.7770482263939872,0.8290360530127534,0.8827021449169843,0.9348256655429454,0.9502496541076686,0.9071764423774595,0.8527484822031477,0.7964563753149432,0.7384312821770752,0.6838312510014544,0.6345818468805868,0.6463869321935035,0.6924339995799776,PM
0.7397978119783312,0.71292238789761,0.6825780320319731,0.6671715946420887,0.6859450074379122,0.6941534202963021,0.6455186332551514,0.5649759466650689,0.47841948935909195,0.39360292078052794,0.30592302879583366,0.22108858057505387,0.13300135049834716,0.05946961609691914,0.0860747657445422,0.16919466286604878,0.255623503887923,0.34569786298576344,0.4356800096645991,0.521426267346199,0.6084918758759453,0.6985927570546376,0.7817304765886469,0.7831029184442543,0.7162492955795595,0.6760156216530339,0.6624647031184953,0.6796425049234208,0.7350364945110693,0.7961374328863783,0.804463025625762,0.7594350335370069,0.7244923866291885,0.6986129239506541,0.6665818257017572,0.6586884781590329,0.6774551749853329,0.6806980142218412,0.6371773673159221,0.5565733838994821,0.47229916140111305,0.38530519835136556,0.2980570451500353,0.21254980759721898,0.12501988171863887,0.0442624359516004,0.026637467523721536,0.09913855265084759,0.18766407253504402,0.2758730442379127,0.36072898673664366,0.4504059442853291,0.5405018686087107,0.6250981424567922,0.7013139807427696,0.786353922940111,0.8252530881926218,0.7650461505487786,0.7050619452788652,0.6744015537993054,0.6630277256387859,0.6982092228430891,0.7558166003163062,0.8027588403179774,0.7734862977768914,0.7214638729098873,0.684399738185986,0.6477232053508822,0.6107372113740445,0.5916930179927092,0.6016703895027385,0.6014411233405933,0.5478018963307812,0.46094657358174207,0.37109362526870493,0.28576287386184585,0.19944527837900528,0.11501314529152462,0.032449923001674374,0.015386103132803308,0.08894951657387762,0.17843397657353932,0.26369322189401445,0.35133920157795295,0.4414814488113078,0.5303333773849944,0.6148930007750649,0.7042166739182391,0.7893804645645407,0.796536163973867,0.7323782917489908,0.6893883977974876,0.6735422714881548,0.6807867115270371,0.7315710378780887,0.7933203171215827,0.797942820538654,0.7534358486751614,0.7295085774588038,0.6968627240386841,0.6722379800201165,0.6761012051530809,0.6622032563279842,0.612873394749477,0.5339422421168082,0.4498184952531431,0.3626960582215969,0.27788588438108885,0.19244985178570073,0.10580396512357348,0.023233222456940594,0.0,0.07508557487386758,0.15959161733858684,0.23906126215625623,0.3225907843101148,0.4064724780228183,0.48165971622009407,0.5696483145091303,0.6597097464383851,0.7444933827057839,0.7744288475540227,0.7100769045288132,0.6434378635843275,0.5897382876403355,0.5470754168435924,0.5030355056353738,0.4887225316649543,0.489952138850288,0.4338871219408994,0.36787179300765005,0.3048055498306972,0.24488347186196657,0.1861687508635238,0.12336284621069415,0.059744612691366106,0.005266028031635672,0.01936466769192169,0.0808218419014487,0.14267015525871685,0.20506637968689823,0.26470288147875853,0.32240086167560267,0.38869289948462094,0.4557926955001067,0.5155618197860593,0.5243932128540286,0.524436420731543,0.5660946589881025,0.6085921823079833,0.6621710662922736,0.7339636310316279,0.8140752496444822,0.8951562156636527,0.9565547281462655,0.9236940500941976,0.8366832218746912,0.7465093262536387,0.6563267842875188,0.5663769728650084,0.4808603857506871,0.4089014401985681,0.4377490404127494,0.522789371752776,0.6030624021186616,0.6629525664227852,0.6942201917570113,0.6974683073568982,0.7015529293459891,0.7352598619073251,0.760809305850881,0.794704679203233,0.8420213870654064,0.8295700009157164,0.7674763222381477,0.7113108438778214,0.6972887499528221,0.72158494638732,0.7787636735378148,0.8562098081012249,0.9364041068052814,0.9877928209836447,0.938240213862274,0.8546265607912714,0.7651701043435869,0.6755179138120152,0.5906969269384098,0.502420974405983,0.41255708020162596,0.3495559638545801,0.39838232526171624,0.4848967948977151,0.5677516378716799,0.627703899351029,0.6310128411714603,0.618805984991239,0.6308793925577875,0.6675576664182404,0.7036357215906935,0.7397025683053694,0.794850093530287,0.8427354182770627,0.8252332095675673,0.7653133061145115,0.7085555969584817,0.6914534360635703,0.7156259158052812,0.7759694137650645,0.8527632299529905,0.933460313727935,1.0,0.9767656093808365,0.896007707273078,0.8066289581961782,0.7164484714777691,0.6265258764000375,0.5440960504301083,0.46561871615964556,0.4537757882638124,0.5294945365420732,0.613445143177565,0.6857385712573506,0.7070024303994015,0.7019888765387928,0.6841758346835146,0.7037447526423221,0.7314879956915966,0.7605866533444364,0.8039745869307077,0.8465883003783884,0.821191962977447,0.7605100222263014,0.7053045614612844,0.6881694236286776,0.7122887609142877,0.7720293990255725,0.8515108697468122,0.936932681611138,0.9968866124562373,0.9606098308654495,0.8877078146527845,0.8173564064560107,0.7308586900434236,0.641118271627478,0.5562274599366869,0.4859527326140415,0.5194091752628346,0.6066350679397817,0.6842092142988864,0.7166561157695469,0.710522627983356,0.6943717430424358,0.7132610923968573,0.7430764546389536,0.7700319693155085,PM
0.9999999999999997,0.9862289802964178,0.971639559684902,0.9570501390733864,0.9424824672180906,0.931017463055697,0.9188767576339808,0.9043037722471371,0.8897143516356217,0.8751249310241057,0.8605355104125899,0.8459460898010741,0.8313566691895583,0.8167672485780425,0.8021778279665265,0.7875884073550113,0.7729989867434958,0.758510395832635,0.748415999610338,0.7348416448247398,0.7202743686734666,0.7091479364864054,0.7019127878775605,0.6877067914703158,0.673215942952282,0.6634306042393961,0.6549203605785304,0.6405719381158915,0.6267130399625366,0.6166936852261834,0.6024148929751526,0.5878255712896422,0.5732361506781264,0.5586467300666108,0.544057309455095,0.5294678888435796,0.5149199872243925,0.503934174719768,0.4912998209357221,0.4767215220173303,0.46213210140581473,0.4475426807942987,0.4329532601827829,0.4183638395712671,0.40377481466377396,0.3901254183922319,0.379967082319724,0.3656174727450182,0.3510280521335024,0.33643863152198683,0.32184921091047114,0.30725979029895545,0.29267036968743954,0.27808094907592384,0.26349192416843037,0.24984252789688843,0.2396841918243806,0.22533458224967473,0.21080645086659677,0.20011817282677014,0.18811224791736147,0.17848113628679962,0.16999207866530908,0.1634531413023872,0.15850445815945846,0.1536535323635453,0.14429232091757482,0.13109451286278395,0.12350370947391198,0.11623702135581182,0.10799591612746384,0.0983499640533344,0.08869830274363477,0.07871085549303669,0.06872340824243861,0.05895981828577279,0.048940979743042234,0.038194978275227554,0.02556181160324844,0.01265335385271904,0.005135049529616964,0.0,0.00014183249936117193,0.0064228634223015835,0.016374500916141232,0.02752729390196096,0.03751377818896995,0.049417609514855076,0.06040342201947957,0.0749512247126608,0.08923001696369193,0.09908047691291577,0.10864677723338978,0.12075479572632186,0.13104756076390156,0.14169146864819282,0.15361773102214837,0.16368387784461047,0.17472002161634048,0.184708260274983,0.19452781455513202,0.20416855202371897,0.21221903527231245,0.2180960224502002,0.22106625284637516,0.22450169336000458,0.2301085738173051,0.23533461529471233,0.236767320892164,0.24065408353009432,0.23519308285439844,0.22954232627998206,0.22344166651194008,0.21612170572150702,0.2113617614145733,0.20653593075972332,0.2020068676832668,0.20176755127648482,0.20309972395129827,0.20799586533477987,0.21267896059959424,0.2129896878860844,0.2129896878860844,0.2129896878860844,0.21298978681209002,0.21330081087659714,0.21888594257767746,0.22411148942505688,0.22421231912571205,0.22421231912571205,0.22423406788193212,0.2271764314340612,0.22982165622541428,0.22982244763345883,0.2281743552218165,0.22433204641938076,0.22717662928607218,0.23020329976158527,0.23493076071768582,0.23790010077981094,0.24102451722893314,0.24104626598515344,0.24104626598515344,0.24031574352699236,0.23574528194780753,0.23449462924734876,0.2300634457823355,0.22982363474552592,0.22982363474552592,0.22949115870281533,0.22178645520964502,0.2215810564088917,0.2230600229757692,0.2187698982930275,0.2186068116674742,0.2202506787336298,0.22516649142721457,0.22972280504487064,0.22982363474552592,0.22982363474552592,0.22982363474552592,0.22982363474552592,0.22982363474552592,0.22982363474552592,0.22982363474552592,0.2297425752809794,0.22502406478021086,0.21898314167209687,0.21860120135790917,0.21860100350589806,0.2186013992099204,0.2196164650358382,0.22413855171282515,0.22767539332793885,0.22992003046688536,0.23380741959785056,0.23856597894070652,0.24435546245522066,0.24248545066262495,0.24261448604431612,0.24097101468218285,0.23624669601983828,0.2302057729117245,0.22909331013937595,0.22452304641220233,0.22421241805171765,0.22421231912571205,0.22410951090494557,0.21617626292570824,0.20178880540267718,0.19032380124028347,0.1781838872266116,0.16486323628232136,0.1625158988555846,0.16575543588031805,0.17930044111500432,0.1909471024703686,0.2028912982905311,0.2174787403819356,0.2320681609934514,0.2466575816049671,0.26124680436447145,0.2754547792918275,0.28533515269202603,0.2994039484312164,0.31399336904273234,0.32858278965424736,0.34317221026576317,0.3577616308772792,0.37235105148879477,0.3869404721003106,0.40152989271182593,0.41611931332334173,0.43070843715684115,0.44459960201331816,0.4545869868245659,0.46886568014959085,0.48345510076110687,0.4980445213726227,0.5126339419841383,0.5272233625956543,0.5418127832071696,0.5564017091886574,0.5695979646749391,0.5760887527903448,0.5889536425751815,0.6035372550251207,0.6181266756366363,0.6327157994701357,0.6466069643266127,0.6565943491378604,0.6708730424628856,0.6854624630744014,0.7000518836859172,0.714641304297433,0.729230724908949,0.7438201455204642,0.75840956613198,0.7729989867434958,0.7875884073550116,0.8021778279665271,0.8167561268849187,0.8293904806689648,0.8403762931735895,0.8549241947927765,0.8695136154042923,0.8841030360158076,0.8986924566273234,0.9132818772388392,0.9278712978503555,0.9424607184618713,0.9570501390733862,0.971639559684902,0.9862289802964178,0.9999999999999999,PM
0.7224031164945759,0.7304939644858504,0.7305600730257396,0.71902269210862,0.711038967526878,0.7076137212717519,0.6968881037813908,0.6788703871103292,0.6744661902678406,0.692756942095837,0.6988946253347699,0.6851264645732005,0.6357692442860665,0.5789795631699743,0.5214512883919393,0.46526932338646493,0.4064022988104971,0.34815339926591277,0.29145898584937263,0.23175729571452924,0.1756330685474664,0.11885215401779292,0.09401671048113425,0.1347486183550543,0.19374433443500894,0.2499142847645825,0.3089121748494528,0.36925970471420627,0.4296165767059184,0.4899731136153061,0.5498014997903871,0.60249833307077,0.6588814549094484,0.715387862048509,0.7738285771338886,0.8329712556015805,0.8538585071686138,0.8095427019299701,0.7616490552517989,0.7304189121939026,0.7234124807895548,0.7233384323868652,0.7227276209826121,0.7289254758836552,0.713222640939984,0.6911812267361106,0.6909121452303109,0.6999336060244834,0.7073630816580179,0.7036003188535818,0.7005888710041517,0.6987412136377726,0.6972969696090288,0.6860814198876659,0.6731988630024648,0.6855118721493183,0.7034638886753573,0.7042668050962546,0.6706761845148428,0.6179494798490006,0.5703296295640192,0.5149635947188254,0.4585416160645323,0.4000523315297489,0.34036203462125064,0.2843559480441494,0.22498091939452808,0.16462831911244458,0.10428610317963638,0.04788643271938592,0.03958891685312049,0.08821029814229175,0.14712060775276548,0.2052602981115435,0.26204980583618825,0.32223203306903053,0.3825889009595628,0.44280782973179406,0.49980745119223785,0.557722061317441,0.6180323330128616,0.6783892050045743,0.7387421994049628,0.7981604441618046,0.8533842928015163,0.8794275498132953,0.8356300793384903,0.7831941972920164,0.7522926477182388,0.7460408318285405,0.7518972729395661,0.7616605093195477,0.7776338349192868,0.7693701729570832,0.738097575782781,0.7203363811631005,0.718331955994576,0.7232216375954228,0.7182167383949041,0.7046501714954172,0.6984910323922346,0.6984113166938963,0.6821042218598843,0.6763343876217625,0.6901272936002372,0.7076445185677358,0.6993631004791196,0.6600186650192785,0.6049618737531137,0.5491144460913049,0.48977804154145127,0.4333483511633062,0.37475794914603194,0.3151268916153083,0.2591270348975538,0.19968421682560217,0.13933099873644678,0.07898082924202426,0.020900784537329853,0.0,0.04363297578029379,0.09766737197866521,0.1497615819660762,0.20791215154841386,0.2641378415324827,0.3241098344422117,0.3844662402545978,0.44465964936117347,0.501526143413731,0.5595913720038093,0.6199096851743462,0.680266557166058,0.74050417644746,0.7968033561517633,0.8215312735907188,0.7800837196111845,0.7447201857478789,0.7433956885045674,0.7687379286726792,0.8111340686973256,0.8557407395440495,0.909334008272072,0.9646106926024254,0.980029597426326,0.9325288902706776,0.8747128512198736,0.8178362265785568,0.75763693312122,0.697280061129508,0.636974806189738,0.5791348956558922,0.5220654363438499,0.4618366331773894,0.40147979166307507,0.34186481547544584,0.3132870939180668,0.358256867771029,0.41840600692118407,0.47704351446242804,0.5334463607418232,0.5934889957670888,0.6518661906908718,0.7014536788680696,0.7231278408385127,0.7223004088096503,0.706556641623302,0.6982428848289377,0.7107847736008799,0.7198803447221629,0.7199292013885639,0.730023399161698,0.7409386686339112,0.740206986945749,0.7368180509329683,0.7486538841619528,0.7815466079442941,0.8032062677682992,0.7920395528512416,0.775809340334114,0.7679282646454824,0.7710933038826702,0.8035147548524393,0.8548852405393623,0.909047047722737,0.9645601835131188,1.0,0.9678968079080468,0.9105962505666809,0.8549405405369799,0.8059418573968959,0.7473984322490372,0.6870535243927411,0.6277630266947514,0.5717296797344327,0.5119606659229621,0.45160507893496243,0.3918599940473247,0.3607686410972,0.40393027597894365,0.46321849034221046,0.5192068422225367,0.5787732940465455,0.6384896478420203,0.6917255984131818,0.7216766518556537,0.7235470320094166,0.7120843886337955,0.695767888243396,0.7057433080741042,0.7158781468705593,0.7143811645526628,0.7169527350822256,0.7218616061127727,0.7238793144589604,0.7165916390144569,0.7075241746186789,0.7173838549706764,0.7429798302935693,0.7480127947906674,0.7399679365510179,0.7418610842800921,0.7451756350419168,0.7711831207525655,0.8188824538168971,0.8720851321939305,0.9261353796164105,0.9628882189702443,0.9344645949384716,0.8773381821939643,0.8172722135558501,0.7607179169460878,0.7022787098994658,0.6419451061697656,0.5815882606346874,0.5214136722815352,0.4646469454857533,0.40849213271806434,0.3954484636988019,0.44828937783347017,0.5068981548937721,0.5628234660360898,0.6181565154640376,0.6714615488551663,0.7083332395922919,0.7172016880549836,0.7101076942765421,0.6940300834354214,0.7033928021642262,0.7206703940215438,0.7267003642712442,0.7298601154459341,0.736957058074355,0.748259498777393,0.7483586290072948,0.7407802526256053,PM
0.05012106164495722,0.11475599740224318,0.17652763341651267,0.1279407410662421,0.04905137933031556,0.060048319971204966,0.14088788722001433,0.17279295206653855,0.12663863221251814,0.08023930135854318,0.07522117308268306,0.1605085800000121,0.22530338112421222,0.21899486759064613,0.21117604819147573,0.28758076969128044,0.3934509387024354,0.5015747368594032,0.6022712004114406,0.7061982427032236,0.7483565299763366,0.6678559738532914,0.5715298711354706,0.4777576605483238,0.39486378812856593,0.34484724433524616,0.31775882344830886,0.2947030431748756,0.285083911826324,0.30772561291423006,0.3535954508547303,0.3590447885461687,0.3524420319220509,0.3429602468701589,0.32997304078660994,0.3209803293018765,0.29143892975704766,0.2523315331773559,0.2496682152145293,0.2790679818651476,0.29041423825639345,0.24100489474430398,0.15097558399844502,0.05850157276814194,0.052723901412723206,0.1338396936367081,0.2328900064543551,0.3331990181463722,0.4409888210061823,0.5435165169893283,0.6469794852328763,0.7421605655043984,0.7159943108838205,0.6209477268505428,0.5242159092812415,0.42586772339123136,0.3420223074975468,0.2939809033575891,0.2792750664985133,0.2741666883034546,0.2757310553493406,0.29037920696387776,0.32991013155915394,0.343626035084204,0.35041678110832564,0.3527958685588557,0.3441084779035988,0.3344913265535281,0.331915618649991,0.3201151564686533,0.29455736625996454,0.2947480075144433,0.325844452629372,0.3387814446794781,0.2939223571739584,0.19803861345693474,0.09595799402081995,0.04481129774261272,0.09946409479968898,0.19909009398532218,0.2995854947327412,0.40697731278610716,0.5076441003821064,0.6101363138457316,0.6333654931420487,0.5450573211393384,0.4536069980241122,0.377874647757537,0.33400949561541715,0.31406036441359597,0.29556920721814794,0.28678238089633745,0.31005947245541443,0.35073856932166225,0.35487050096532813,0.354429492261358,0.3531932495397849,0.3443926872423022,0.3417490749304757,0.31793576078593855,0.285401893920306,0.2992478504916338,0.3372526297451022,0.33042445830311706,0.24901239470145264,0.16454376749673583,0.07046853979764434,0.0,0.03240474985657693,0.12806323896662608,0.23594704493061203,0.3447437834155256,0.45354173159533206,0.5623260386008873,0.6677814191642486,0.7160955739307242,0.6419387567907806,0.545834026461095,0.45250300216840045,0.37679572292396646,0.33178460706990576,0.3128201341694241,0.29832602806923947,0.2880700847582107,0.3182986837115438,0.3573639616546995,0.3523921350225543,0.345266246640088,0.37408030215509713,0.38950431650115336,0.40575258896844146,0.3728914137352428,0.3339143616917155,0.3347767464212208,0.3540671329375147,0.3761284375371574,0.4372072836498584,0.5285616612302253,0.6240661938130845,0.7207294228090808,0.8178490191392791,0.9157625286991606,0.9745557900810524,0.9132513844586747,0.8103662005385,0.7089480472542713,0.6005478717737585,0.49254001378661205,0.3920598845248533,0.28601961874428117,0.18127618359234732,0.16022170117459456,0.2527914808282674,0.3513972326222299,0.4182112907207911,0.3930366100432596,0.3678512943790828,0.33302361357046006,0.34235555051902145,0.3732992878225969,0.3804398063205958,0.3853586926313486,0.3956984437470934,0.39752439355743885,0.4047109714632997,0.38089610068200797,0.3367412188913006,0.3350709624069219,0.34512936143258166,0.3623780859655572,0.41211147066331444,0.4913357715194373,0.5842641699932047,0.680766308812504,0.7768048020525076,0.8576810779424664,0.8508087999030753,0.7666960812247667,0.6597872966757994,0.555559400607516,0.4537036034805164,0.34579834511538343,0.25192299501011384,0.2529543792856366,0.3468352112954314,0.423192849563941,0.40658306699786295,0.3713415082782179,0.3385603661142167,0.3527040099235177,0.3745964075424575,0.3790620609782964,0.39556188668484404,0.3936696468149108,0.3943968726997653,0.3880932609487824,0.3458417634176907,0.3232972368448399,0.31983893212575887,0.3244627393750752,0.3503866410279801,0.4090380090804904,0.5009149096463961,0.5962038659646669,0.696698419981886,0.8018311468671595,0.9003263266021071,0.965924336695198,0.9151679076509731,0.8154276008344044,0.7081840400169497,0.6080490587794831,0.5012961305211949,0.393945778892445,0.29403871264164194,0.21308589365662556,0.2670847187357961,0.3551322512433863,0.3635144248203812,0.32733668118163384,0.2968392837046645,0.3093815129549573,0.34327142216104267,0.36038037443881366,0.369516337789501,0.38284224622583785,0.38845863865064945,0.3989424105233452,0.40629024503062006,0.3696202975607148,0.3285312345601781,0.33910241716731515,0.3594802607627021,0.3889481607477314,0.45226138049332865,0.5481717654308749,0.6434931745359498,0.7297908226974388,0.8195395754076047,0.9166815764036207,1.0000000000000002,0.9882436821450644,0.8959026788812501,0.7880882262955968,0.6792916497671426,0.5704937015873319,0.4617009432420669,0.3545346196388319,0.25458162468361434,0.16776905603869396,0.20883676642333238,0.30820369651212687,0.40358825848040913,0.44087519093778105,0.3974451968399575,PM
1.0,0.9849744161360816,0.9691213528987814,0.9532682896614817,0.9375224263921937,0.9259990695489628,0.9115498877367232,0.8956978446971253,0.8798447814598256,0.8639917182225256,0.8481386549852259,0.8322855917479257,0.816432528510626,0.8005794652733262,0.7847264020360263,0.7688733387987261,0.7530202755614264,0.7371672123241266,0.7213141490868267,0.7054610858495269,0.689608022612227,0.6737549593749272,0.6586859408998205,0.6475448909422377,0.6320375613804814,0.6161845144105709,0.6003314511732709,0.5844783879359712,0.5686253246986712,0.5527722614613715,0.5369204717282641,0.5223317104874392,0.5108861988675817,0.4952018164970151,0.47934875325971515,0.4634956900224154,0.4476426267851157,0.43178956354781595,0.41593650031051554,0.40008671843803323,0.38651092619376315,0.37418233718406646,0.3583660553461596,0.34251299210885966,0.3266599288715597,0.31080686563425997,0.29495380239696023,0.27910073915966027,0.2632476759223603,0.24751874805571406,0.23617201303514634,0.22152941343236787,0.20567723095800416,0.1898241677207042,0.17397110448340436,0.15839380356213018,0.1473599789369212,0.13225573294088533,0.11830631709447992,0.10633385086520808,0.09145860294789843,0.08029163559776487,0.06860658929441243,0.05807487121106225,0.050006928291139396,0.04206140041526185,0.0353049728792344,0.030075174921551318,0.028430300612850123,0.019482558590329768,0.012325873103543938,0.011557943394453707,0.011517365108436817,0.007921446792724551,0.00572681634969896,0.003483091070256572,0.0,0.0058068564165670855,0.016230838102176626,0.0266763215500595,0.03515539576188498,0.04215010668458419,0.054749563338921337,0.06365264004143711,0.07411465204947809,0.08569801790856035,0.09605213632701726,0.10408755917594659,0.11441849282734629,0.12494228609906799,0.13538604226605666,0.14224238778968945,0.1556858188698269,0.16416924349913653,0.1690728307238233,0.16637769394046276,0.1612654444006839,0.1561212703945416,0.1486347099761065,0.14724786171239346,0.1516440243550351,0.15053531908621043,0.1431089866936729,0.13575546081739376,0.1327442288104158,0.12889486225796665,0.1335315660218961,0.13423562291097768,0.13466964014204352,0.1395338842528976,0.1400931739864093,0.14236284400423427,0.14252956606153222,0.13291752393015754,0.12428803579823877,0.11776076991186335,0.10809407149113737,0.09848781963946218,0.08928363598556821,0.08142277668570963,0.07354601199886146,0.07001827043251807,0.07200633568342796,0.07975975153246184,0.08768634157614841,0.09607039582745192,0.1063863351224974,0.11542626790410426,0.1259747691772508,0.13587852805680256,0.13286793633154415,0.12755291799827617,0.11791125908362188,0.10743961524212242,0.09825871948141351,0.0930998936655576,0.09473917070017424,0.10706710607085634,0.11726236710135418,0.12434718113112164,0.13389643068914414,0.14180753069238217,0.15005518223766245,0.16046626410771725,0.16555897862078384,0.16282546241606888,0.15994376341116845,0.15993839284877975,0.15867635113678147,0.15421712207275973,0.1540964175422178,0.1526022744815727,0.1488954391186862,0.1552999437037048,0.16480983648481096,0.16832777187209835,0.1756517775299382,0.1770371742234187,0.17305725774992786,0.17720042798311375,0.18130107161068587,0.18646084289185105,0.18912615662763954,0.18913908684946312,0.18677279273263658,0.17659352162823827,0.16760300451972876,0.15492998176303385,0.14659925480420222,0.1359111106135782,0.1251851973527056,0.11456378030452874,0.10644549586586438,0.09750539140559034,0.08309793886768435,0.07248960487304301,0.06305054841126545,0.05509809614022343,0.048751289562627975,0.03858627743567733,0.028602260676879432,0.02357191311096951,0.024868218237533157,0.030084974707262346,0.031449556712274784,0.034901673326692584,0.03808927916885363,0.044857400961354044,0.04891495163071935,0.052074988106612485,0.05726031702668366,0.06497701293245195,0.07296994525479616,0.08638114164996935,0.10015088374915992,0.1122619427741377,0.12496741938549916,0.13811851762059302,0.15394776666554877,0.16864308854589516,0.18002094201858054,0.19566597570554778,0.21151903894284707,0.22737210218014714,0.2432251654174472,0.25907741993310685,0.2737771818400998,0.28515221622332,0.30079561038180347,0.316648673619103,0.33250173685640316,0.3483548000937029,0.3642078633310031,0.38006092656830237,0.3959139898056028,0.41126835982943466,0.4222289880612251,0.4376316852608815,0.45348443476995914,0.4693374980072589,0.4851905612445584,0.5010436244818584,0.5168966877191588,0.5325809954712042,0.5436626590458848,0.558614727113526,0.5744671326835151,0.5903201959208144,0.6061732591581144,0.6220263223954143,0.6378793856327141,0.653732448870014,0.669585512107314,0.6854115362824387,0.6978767891900917,0.7113209654250394,0.7271559570716701,0.7430090203089699,0.7588620835462698,0.77471514678357,0.7905682100208693,0.806421273258169,0.8221863299837842,0.8339098582260334,0.8481398332089951,0.8639917182225259,0.8798447814598258,0.8956978446971253,0.9115509079344253,0.9274012475459703,0.941264862653036,0.9533098277919061,0.9691213528987819,0.9849744161360818,1.0,PM
0.8841679161500497,0.8357683686393478,0.781397740493817,0.7344517842092824,0.7021991786313917,0.6838813571630147,0.6864494484197061,0.6942130564574531,0.7040159322569253,0.7064902183532427,0.7069172151979173,0.7137681881023061,0.7166979916536222,0.7162177319587688,0.7044594832328679,0.6820889558938585,0.6789184024346382,0.6916722149950363,0.7167213779686696,0.7282905688474264,0.7379791134594398,0.690979753828787,0.6256290923182526,0.5538836914278251,0.48511576204797313,0.41724300793051894,0.3446409177596148,0.27848570161949104,0.2076615146863725,0.13476479165528366,0.06828866993940208,0.005400709004143911,0.0,0.0640963999848132,0.13736659485534908,0.2106796250571361,0.2839926552589229,0.3572768920890772,0.4274004021636364,0.49406153033605693,0.5670290259559865,0.6403391517821393,0.710464580603728,0.7260499887364316,0.6993008048093825,0.6839015457049344,0.6730253449324921,0.6660004536870714,0.6663118131581018,0.6744582964512884,0.6919947554167292,0.7292041839340184,0.7808824087655337,0.8340000592707477,0.8853138474158211,0.9172063988544483,0.8817833468647862,0.8295318143874424,0.7806080786578089,0.7349385120210126,0.7008043160391593,0.6821180318381665,0.6844508354473506,0.692420688299219,0.6986025880004723,0.704305339428575,0.7064946817068396,0.7079161811326851,0.7155059586470864,0.7129770992865538,0.707430727545785,0.6897131173554627,0.6789052783917817,0.680296980870315,0.6996329432555801,0.7238339935482483,0.7306192819017159,0.6978111241061442,0.6284484559300607,0.5605515257124782,0.4918298016240661,0.41882490310596476,0.35149832608950193,0.28213667506432816,0.20902473144250866,0.14118003665758105,0.07324340129661722,0.01864325247176024,0.03578488704149474,0.10374926104787119,0.1770266135576568,0.24940353741435106,0.3151489585939431,0.3867566563394882,0.46006411303862516,0.5333771432404117,0.6066901734421981,0.6799101348876315,0.7381901056842888,0.7235718559838653,0.6968422382489652,0.6829249425456032,0.6787697184176584,0.6759318920622537,0.6769793485772859,0.6862537805532949,0.7084224999009681,0.748958747146844,0.7990321764106088,0.854327144894687,0.905887367589483,0.945783125155758,0.91995818213729,0.8771272096260807,0.8332108367014863,0.7845958529155672,0.7402085413436084,0.7129247625506641,0.7066113494048059,0.7065471907340579,0.7100886256286161,0.71225297421907,0.7159173769025837,0.7167188448437116,0.7166468589936308,0.7098244046423459,0.6877655859843921,0.6777123303519557,0.6882022889327029,0.7107657613277216,0.7271691461531586,0.7504758845956361,0.8028354462510046,0.786671000861487,0.754611180762371,0.7413117134855782,0.7178482924543572,0.7089863997267296,0.7203340155624081,0.7366047340173087,0.7411874190813599,0.7412376116567891,0.7412376116567891,0.7412354009513487,0.7400827522883928,0.7334473073583492,0.7366800722549907,0.7410082977470658,0.7705183037265062,0.8205620447690611,0.8710525707423471,0.9228324726472981,0.9708281858968624,1.0,0.9750196819546293,0.924958593928022,0.8735117251829156,0.8150161022012288,0.7644717020141412,0.7274367728449387,0.7088092825129277,0.7066839026393177,0.7054107999670163,0.7115541542725157,0.7234145448580624,0.7467003880841474,0.79742380856623,0.8612575397570665,0.9256507359764781,0.9565375679643198,0.9113153081553762,0.8449874545151947,0.7755027073635175,0.7022374832953457,0.6289244530935607,0.5556115577564948,0.48393022054594104,0.4649396399879868,0.5296807991431656,0.5980034307679614,0.6662350806484643,0.7352583574526936,0.8018773037824543,0.852091844891778,0.831488506071052,0.7787522128620898,0.7568039379717304,0.7447347149927692,0.7195308695770688,0.7148662762549578,0.7305461421587054,0.7406895665482476,0.7412374427103368,0.7412318250829233,0.7396950410310259,0.7361790770883092,0.7310809279123669,0.7228834646267408,0.7173402685686026,0.7135605065056279,0.7358230331138735,0.7779692215814689,0.8266093083346953,0.8754845524629391,0.9241327498352616,0.9575234061271649,0.9409012464356614,0.895102605754269,0.8399786362505346,0.7860780187825589,0.7407107979403811,0.7091440732297518,0.6966581162577268,0.6954545408897894,0.7008768374540191,0.709651204339268,0.7272129712754039,0.7618780829375715,0.820459382385839,0.8838141571342808,0.9237145431682134,0.8880317651261436,0.8181955591081771,0.7449032631668784,0.6716004239725661,0.600437239129936,0.535826459724754,0.5105844190851023,0.5690326841438709,0.6418989246048776,0.7090977754268382,0.7784508658531095,0.842802817002644,0.8596228430102746,0.8087120809251378,0.7645303149095812,0.7493410234516407,0.7284308603308065,0.7162334663302372,0.7206615780988279,0.737545619642026,0.7412140127375069,0.7412376116567891,0.7411441256460023,0.7363335628698966,0.7311485006208471,0.7306902018240329,0.7238091358574115,0.7144197347121557,0.7229843257779169,0.7531836913859933,0.7971832440652471,0.8467944067246551,0.9031879009127315,0.9480006866155715,PM
0.2938772413767783,0.31548476825221616,0.3660239095626292,0.4518481288680569,0.5367815152979329,0.6221613038838143,0.7058363715267983,0.7584064579242948,0.7000752214475017,0.6078556896192988,0.5183692670158322,0.4280884038025201,0.3412546930343525,0.2565250554499763,0.20047102733133748,0.1773395142959786,0.15096498974992212,0.12178016229639876,0.10128421484224126,0.13774741661187506,0.19388183311997365,0.2479317474576761,0.2667514582943771,0.2405293136022515,0.23165212652673417,0.24961424253173203,0.2792644484135902,0.2605401943461938,0.23531247871465988,0.2626993327539868,0.30504815074354474,0.3364636447180469,0.3204570595708369,0.36259496152335635,0.44438797844975086,0.5271496813699144,0.6120433678739063,0.6992086780377509,0.7815390848604515,0.8174207239330666,0.7419670305649881,0.645760647703248,0.5513172252891436,0.46284769485861643,0.374280988053423,0.2893611592518577,0.2140180142912338,0.15395396517702453,0.10958378600052754,0.06346275102853483,0.02486982010603711,0.0,0.02643020789297168,0.08649730681063095,0.15346019815352818,0.20788421026857917,0.2035952717356122,0.17974171637291136,0.18745991123613193,0.20760498882610845,0.22739624593485375,0.23396707357159174,0.21842068932914405,0.21378897486299975,0.21714965335768377,0.20751845066232066,0.23675272913454326,0.3133044700243832,0.4050567002742438,0.49064055433260645,0.57695467923141,0.663533886007063,0.7447014316850096,0.7673058226476517,0.6875112086494877,0.5976561231662214,0.504004696439091,0.415237093178936,0.3259460544415542,0.2372070043689094,0.1491469000454133,0.07525979233686453,0.034022564127842214,0.027515283907794563,0.019823966532399595,0.034117954300736386,0.08479582161047095,0.1405575708873259,0.19771814941598786,0.22742176297078642,0.19952036232217374,0.1937999146170617,0.21772962987849231,0.25517674423448367,0.27524561774282774,0.2654057770109264,0.23734753864925007,0.2333109801264388,0.2600023902443591,0.28296793709740165,0.2961213832021532,0.3590948806278713,0.44287164489236397,0.5282243818629111,0.6154711113279965,0.7024338898566569,0.7883610504942467,0.8478066901143975,0.7913473615549909,0.6955845643746974,0.5995896890312129,0.5097899454723356,0.42020124376575096,0.3341700606767777,0.2517335198674,0.18815698083410703,0.14704476311590997,0.12037437553870656,0.08993511442531377,0.0680335312761211,0.10216949394126562,0.1628023142387196,0.21069301930966877,0.17152235782945469,0.11861999029812664,0.11897356262370096,0.14931029706653387,0.17630412361586112,0.21823618479142382,0.28759893441740747,0.3724201229258519,0.45504383590518094,0.5335846743356241,0.6213373283615695,0.7143927141497781,0.8032651656779812,0.8952351841366544,0.9770811321531512,0.9912029670119611,0.9160824665648852,0.8301482883183993,0.7457623543298042,0.6587125099312208,0.5692742944721094,0.4836395364726054,0.3998356668159073,0.32959810111371346,0.3127186614950521,0.2927980219682347,0.2644345068833178,0.27530612245278063,0.29828990504642383,0.30788217634552284,0.29104803215363106,0.2553751836381315,0.22622066391248263,0.24138309222590304,0.264732425033696,0.23777128356977006,0.18540943862376746,0.12760096919542852,0.07389246221203916,0.05680827821274548,0.06523993360941116,0.09818212605824983,0.16982098086153452,0.2534932315084686,0.33988345657392927,0.41134569374220353,0.4772877038131569,0.5615483790499631,0.6573516121789287,0.7477772760789811,0.8380245453287651,0.9157287537539704,0.9150892383747231,0.8390360431377495,0.7524990524947719,0.6680412627133077,0.5748385928711044,0.4876731570958892,0.40355766849720087,0.3200107891582411,0.25535150008705054,0.2553395047979088,0.2503226930617122,0.25056677186901477,0.27384230374521223,0.26730693842098807,0.25668948301623407,0.2304590298523863,0.2174094016991439,0.23467481972872672,0.260069178162706,0.2320459385925,0.1718508936510219,0.10840808664890078,0.055023899853824165,0.05496959900140497,0.09479619291519503,0.1426891660058922,0.18773769102731586,0.2513453224320177,0.3316755469343673,0.4171247029895857,0.4932288401489684,0.5754106530908236,0.668552802383513,0.7573198710049107,0.8514492838979097,0.9396922881867185,1.0,0.957700316209686,0.8745708007016924,0.7899967610899461,0.7066989297908814,0.6210818730337766,0.5354017603257695,0.4481826135415059,0.3797656561846072,0.3675733092627078,0.33278908711045374,0.29062205341115677,0.278337414077825,0.3077265179066009,0.3102095817998203,0.2779767080591251,0.27107338357322264,0.29367314991881566,0.30047818680646676,0.26437482429843917,0.2103773893705334,0.15763546227477376,0.14979035209968017,0.17609564278242806,0.2035012395355773,0.22900398914694176,0.2807880867684722,0.36158533269393023,0.4504977313459504,0.5391182797086462,0.6343937366756864,0.730054304195423,0.8191127969719667,0.9092617456109866,0.9777709458546724,0.9516731968700811,0.8668414072534456,0.7804284321724131,0.6970519321581561,0.6050199886937375,0.5177870278509114,0.4345578893520239,0.3633669400656687,0.33313501339588525,PM
0.8892159564322077,0.8171273941633683,0.7510154763580399,0.6998316783880565,0.6655518010486459,0.6632650461280489,0.6665868852632615,0.6683281517473509,0.6792341139698044,0.6978545726397796,0.7025688214971737,0.6817915861799073,0.6297002254244073,0.580231937161956,0.5937239824030751,0.6661290091774954,0.7195112492817182,0.6574325695871215,0.5508257518859438,0.4561195563279026,0.35686563548607086,0.22794608401695005,0.10334636327416602,0.06133297776191915,0.14584383833126902,0.2682336750091858,0.3930541594198247,0.5108240673361082,0.6255395099198311,0.6632349016764585,0.5949642742062227,0.5316992189248277,0.47615436357607877,0.43072519262275,0.4022678149972312,0.3960379113589867,0.43274354419913363,0.5028614312567385,0.5886088088909056,0.677122959237678,0.7607184961268807,0.8527282790269148,0.9108945998479654,0.8720826578205649,0.8012518050764044,0.7435262306311139,0.7151745772921818,0.7069414311920226,0.6914724029436403,0.6989234140857943,0.7009844873140594,0.7009593495051929,0.693220473241265,0.6395938883460777,0.5895273103274441,0.5756971418839396,0.6262493555836683,0.6791716991696646,0.6273851184348298,0.5190696577522944,0.4161543916881345,0.32409828721200684,0.2225301448488799,0.12138260453858374,0.017529413878150546,0.03413521473718939,0.14794156357274302,0.27108003566854944,0.38970819577962423,0.506563420511752,0.5952279866165155,0.553263349090924,0.47885173069636044,0.4101527490797072,0.3628923816338361,0.3060935031639942,0.28570308222789365,0.2924690932419325,0.34603209182535855,0.43045010568011355,0.5245160715888688,0.6111257920001125,0.6963887290163231,0.792005773609505,0.7969276587451586,0.7250200642668143,0.6520777960523785,0.5908072298073637,0.5505720130171867,0.5238668051919881,0.49841004022285285,0.49066956993776367,0.48595915981342364,0.4981534871405726,0.5067367010499431,0.49577910095239197,0.45073794094149733,0.39358176846338777,0.40255385909063524,0.47845099532608604,0.5539640544198945,0.5284870980419871,0.42726264251697676,0.3216158866013181,0.2203257983127127,0.10269613167864966,0.0,0.004366882530084215,0.11377994901310551,0.2323296810122084,0.35418890973436,0.4681746323887075,0.5336755708021701,0.48180073667080947,0.41448755040031804,0.3563563308862485,0.32023368338071023,0.306270727756472,0.32600677394451383,0.37142369618776483,0.4457168131006193,0.527667130013747,0.6182002005793548,0.7190292273823515,0.8082491748044149,0.8728315032057461,0.8286467111487563,0.7463169514110248,0.6868209626208084,0.6491688989556503,0.6338443472422535,0.644157909240743,0.6627948534636174,0.7110880060197711,0.7159531526187091,0.6979436001353378,0.7010207383967111,0.7511987756201894,0.8184036840637718,0.8934561605405968,0.9384120981071424,0.9263756351026831,0.8403914809653337,0.7422714587730552,0.6505297590097077,0.5613550509228435,0.4800755861688759,0.40569266431684925,0.3748809620007014,0.3825079221648209,0.42348793263991746,0.48077510909494814,0.547482574965152,0.6332020612367608,0.7178764379797746,0.69667549797949,0.59091627632418,0.4769415325859536,0.4087819719666883,0.470827402089419,0.5778733271473202,0.627880526549986,0.6033401780888914,0.52507681582658,0.46600285446825174,0.49990041566631005,0.5508865164782684,0.5801609649683805,0.5712719811876634,0.5541652482200496,0.5518832384035011,0.5557261396326862,0.5781017282836234,0.6000356713990347,0.6378735233951054,0.7004693047591948,0.7778100658365155,0.8466301262726263,0.8982787442886462,0.8763660720136439,0.7841393980018165,0.6884343022266561,0.6019476645066333,0.5063787646026747,0.4217274229680106,0.35762125017787083,0.3484268489674629,0.37552914958986294,0.4285270460385804,0.4874926670155162,0.5518417859462685,0.637480351839748,0.7300685510975335,0.7671698318782729,0.6879068987086563,0.5731965609172547,0.45189567192370594,0.45407654134930686,0.5331003404348418,0.6338189418292375,0.7259193509160946,0.7583973746033101,0.7196890622426908,0.6495528855640855,0.6494830142361088,0.7044930643227536,0.7533145352546367,0.7606065002123379,0.7691599133732567,0.7606207644453402,0.76427939275449,0.7555287556021937,0.7652639972131294,0.7928248206686805,0.8297696888985606,0.8868475869791479,0.9589018307874402,1.0,0.9585554820564361,0.8769342748859486,0.7903118477881375,0.7071311979858006,0.6153990371723652,0.525270668929223,0.4742062848195454,0.46869524592594924,0.5017953054096616,0.5535267089670728,0.6170917438710406,0.6843459419423428,0.7748033829221255,0.8037443946095153,0.7212711910761853,0.6112467871843181,0.5312322809372914,0.590821302281475,0.6957182583712704,0.7760208394293202,0.7962471118459398,0.7455081006849835,0.6682879768344137,0.6677272389275162,0.7232244690756637,0.7704699034229776,0.7705275995616039,0.7693394972734282,0.7479958243037901,0.7428244732415794,0.7286142088729619,0.7278447895177118,0.7372659207085093,0.7751804151315267,0.8298611107498726,0.9019708682011478,0.9626048482567207,PM
0.0031691984314639043,0.08173705580228496,0.18584414510881508,0.29080218840197336,0.34342025137805443,0.271809760798182,0.18714125923145453,0.14122285260638012,0.14363014875938607,0.1493822278052157,0.14975498621652594,0.16436938216138586,0.17641048069530818,0.1898764854495747,0.20299952428147616,0.20322519157841246,0.20325836286021115,0.21015544769515415,0.22718228293631793,0.1878919927647491,0.12366972390301978,0.06852908293074034,0.08689792107800898,0.1607493577368917,0.23465275995703738,0.2768799576528309,0.34183831773300977,0.4643305847267918,0.45084935162223605,0.3861217595386277,0.47464472000972346,0.591349224556164,0.6502650264110148,0.559930319796333,0.43238712380764266,0.3365918344492007,0.2559234479074215,0.20240264158575716,0.15077872409237525,0.11745429790195061,0.08555635083432289,0.047693039212155064,0.018383511245238182,0.0363557454122434,0.10187883770208295,0.1882784075680597,0.2857686497315992,0.38775979384049375,0.3704095142163686,0.29284831554906354,0.24221573326363277,0.20570094681082285,0.20961195501899343,0.20776077835344076,0.21858335417764874,0.22998248859328196,0.23009152478647188,0.22323971681632582,0.22862346410034107,0.23851692689042725,0.24651562324469367,0.2336350963486522,0.24165139884729037,0.22840606660573481,0.17420144369201296,0.10739766992693323,0.11367349622346179,0.19476711822797999,0.26727501810087073,0.2979755782623119,0.3857983379224219,0.48607759693064523,0.4118705903469264,0.3947552308207243,0.5128153889477822,0.6464876948417997,0.69019212826427,0.5722797398687351,0.4388069669611898,0.34067608566658514,0.27653865257745736,0.2223458352113834,0.1683775944163015,0.12670322180570714,0.08644467588927007,0.04138167526664738,0.0,0.008578986873626349,0.06638397650923888,0.1560176959670816,0.25424132814689493,0.35608767434023925,0.41645817384960093,0.341882414387376,0.2614251492694022,0.2110937138981983,0.18966517699481322,0.18688211131091848,0.17986934489775752,0.19483391281316198,0.2079598054231484,0.20477329819580437,0.21128590763456945,0.2292588276283647,0.22449040234165984,0.2066368180902165,0.22470909740644984,0.23008601925286243,0.2225250596268804,0.17225251582187084,0.10686792735940731,0.0893384057056581,0.15706808548440776,0.23675231006977437,0.28335205041390665,0.3370131470248401,0.44489449249779955,0.47445900054662893,0.4100727922201379,0.4998141972058576,0.6346088884264125,0.6638160910371189,0.5508166818507503,0.4273518563294596,0.32815674887372204,0.26156005731343335,0.22317131237329413,0.25702004225776065,0.31641512670201344,0.38014226782817495,0.4648560055377029,0.5947253280920393,0.7304068407202591,0.8554387350950234,0.9451425405418199,0.9113340888636561,0.7952339465102574,0.7436146693177523,0.6719173681108588,0.5511300421664478,0.4275211541122701,0.370643476408004,0.34239255676999747,0.2663665958381092,0.2083241133816207,0.24410310963165305,0.29291113922598555,0.31875992625979777,0.3197587025545179,0.30036455246777916,0.3107749621911102,0.32101974473006756,0.3052286521412828,0.2948311745120975,0.29471987280378986,0.2930301448498138,0.2779412930437166,0.2926139559037235,0.29846660534463965,0.3367296785979548,0.4159290831604281,0.5044195628335428,0.5185740846085132,0.44287504706129255,0.334837115368412,0.22694950745900666,0.1476476259800723,0.11076977619104333,0.13548018508088067,0.18232497324053742,0.2233976097599637,0.26989017233754176,0.3158477520400149,0.3697942140077215,0.45389742265123,0.5689752122757463,0.6945517226651718,0.8281499381461179,0.9417713954380496,0.9166353831036895,0.8055503392520498,0.7598358517148638,0.7185943167049142,0.6022533690258092,0.4775270195568284,0.3851410076594215,0.3391517945870248,0.26713952814105824,0.20729056153379144,0.25344434545692707,0.31187136663217174,0.34200423904895594,0.3299093560472901,0.32618774572033704,0.3333574448815,0.3201415180083398,0.3171382578961177,0.32157830754797345,0.3216256463073055,0.3183034056757066,0.29782765208772677,0.29482125517371127,0.3052347522595209,0.34667259839160014,0.4249577469990591,0.49589914258041023,0.5176630231249302,0.4348560767120455,0.3363411441514579,0.24069814216846286,0.15269367900293052,0.11050548314128683,0.1352793939980046,0.18075907443061556,0.21116690497060375,0.24630835402947504,0.2948462431385943,0.3575268025385663,0.45290922883015217,0.5735377042597483,0.6981604792955203,0.8313205970040425,0.9521661970748863,1.0,0.8960737618251686,0.7560321622885109,0.6907897978531805,0.6470231344489363,0.5304788472054964,0.40228655181781736,0.34358995202762976,0.29613229047959155,0.2116787008029979,0.1850495132389085,0.2415977021510063,0.29631894396129077,0.3201576012982459,0.30392266792944067,0.2947903084063954,0.29458924373334305,0.283296123837105,0.26821126809788165,0.2642859007078773,0.24384502925729112,0.24090365716909012,0.24089996999021768,0.24120615268250845,0.26699676660286453,0.3429265466560141,0.4322336145818255,0.4712343373139616,0.40611982626153154,0.3042565774617163,0.1864594820937846,0.10487949451398215,PM
0.32154013588538577,0.2747323426597186,0.20982752572543584,0.19095992837332298,0.2130161017788459,0.2649224629045288,0.34151076996803864,0.37628160640091535,0.40575123259357726,0.5178282896908315,0.5785476257000428,0.5367080623402374,0.6125092858850372,0.7011577721787643,0.6088071976711986,0.48875521672303934,0.38822661539337266,0.32398686757251083,0.2710160644754649,0.22677158938498332,0.18426156624121592,0.13271189481554302,0.06252126871333719,0.0,0.008257460712983722,0.07191378543418159,0.16252919248165876,0.2634592162356997,0.305976310238647,0.2573005713928982,0.24670540880237857,0.2873715144361588,0.2948060657203979,0.28636382449662534,0.2851065183985373,0.3004208430092974,0.2831117245745731,0.24085243825208735,0.23995792181928532,0.20603090140569114,0.1829419246427042,0.19036869599904094,0.20971786187103136,0.28586960111883286,0.3584347134856327,0.38335839943948313,0.4516401764468232,0.5699696049018512,0.6322052121925554,0.6184354565524663,0.6603072539897696,0.5616948827130037,0.4454525249757473,0.3496508685175326,0.28632453491746235,0.22926129411628482,0.18781635966153543,0.14989947344374333,0.10363909972081853,0.05577221103712082,0.04570531339580075,0.09986234421142459,0.1837721365346603,0.27925418147593684,0.30556122641330363,0.26879612320471713,0.2543293577785093,0.25514800625146217,0.2722405627585154,0.27868008445677583,0.28314402628381474,0.30152743402753224,0.2991587227407746,0.2530192839004659,0.18737612108377144,0.1687184659948331,0.18601651017778265,0.2380473367677327,0.3134388503787533,0.3514773514965204,0.3869077326822503,0.4941696230542987,0.6021994780544069,0.5921471460708347,0.6417817036031246,0.6613510535392648,0.551957168061294,0.43863652297871125,0.35569857200775035,0.30419230953943055,0.27008570893370676,0.221224658167253,0.17204569970718664,0.13055648422650235,0.09378141941241847,0.1188756151942818,0.18937505210997996,0.2740288766282948,0.35480988549544135,0.3549642500754664,0.3347083186824187,0.34858646416527117,0.31952560164433885,0.2391040557626467,0.20667354840468066,0.2237545790889408,0.26308864994226333,0.2782959930828879,0.26496367277519006,0.2102304616843389,0.1646494787826942,0.17572223076219418,0.20339726342133835,0.2812172187074946,0.3439919749506326,0.33916648052739573,0.3824364308516155,0.48907564849773477,0.49687147618520777,0.5335818828599757,0.6320812423181787,0.5668842168348847,0.45781657839616274,0.36491141665533045,0.3040654435906567,0.3475063285442892,0.4360152720781483,0.5344842314951417,0.6492091058835192,0.7714444068101094,0.8839439021947215,0.8934706285453369,0.7870635371636365,0.714044085196647,0.6263906959069359,0.5118911103608892,0.4410510646654857,0.4222346024944259,0.3458870666729319,0.2792745567750994,0.2564570966405575,0.2761205251004335,0.32978258904642166,0.3376558276850816,0.33578917474096714,0.31088127791590425,0.2776510665416754,0.3057768128936398,0.38946247667774214,0.41117162907047833,0.41213340401031795,0.43374627978881586,0.4565681982476675,0.41010580207746505,0.30931434447581774,0.23110186002965172,0.17920830141243504,0.21189552999771166,0.24772578303449855,0.303132469381294,0.34251010451853015,0.380694645316519,0.45026928189280335,0.5574136857935232,0.6740672196289901,0.7926671161037588,0.904578848260067,0.9195940731345726,0.8490072803721884,0.8167693581579267,0.7100522579105415,0.5856803756952176,0.471072003883537,0.4260221822131922,0.3821345173975854,0.30116752370865374,0.27891286929379433,0.2611534730985361,0.29750897189963643,0.3523101979402363,0.3622020610615304,0.36184307561301976,0.3475353957248992,0.3377906749020423,0.3376848133239405,0.3352504736896065,0.32331176973716547,0.3580264659968253,0.40263091679923635,0.3790129376062068,0.28217260316149195,0.19191200819492904,0.1312504715667835,0.1507530160476227,0.19766506967048691,0.23512847894341915,0.28316977780691754,0.32724003569782534,0.3973165381513062,0.48949142317087935,0.6059952999994764,0.7291519267235764,0.8527545537533547,0.971053346617127,1.0000000000000004,0.9007463647956597,0.8373969591149826,0.7398471526598454,0.6168614686395055,0.49064627429382357,0.4368420666702959,0.40660252479364134,0.31705618485999,0.27577718072498536,0.2674093790928693,0.2790453770137793,0.32702691366654824,0.32289016880332566,0.34604368611301295,0.3618853471807193,0.362266380956608,0.362266380956608,0.3621767729484291,0.3518463487282193,0.3293742557462358,0.3730715127640454,0.3752286868345318,0.2935555204663891,0.20050177574285,0.11693251811801186,0.08918267542012215,0.15299348720838513,0.22068348327686627,0.2610213158683208,0.3030539002429413,0.3513422732438989,0.40888547014252863,0.4957978840921933,0.6123207502380903,0.730956554435028,0.8492521109686666,0.9322260297388252,0.8705098023445035,0.7832537414038119,0.7477246448950594,0.6422868049986454,0.5131219414969537,0.4617893524696952,0.43159336320014896,0.352986952002428,0.2979995918258975,0.27819178754522955,0.31928265190083094,0.3739585365012057,0.39835067111170774,PM
0.4136357468325129,0.4411053381584469,0.47440292729970146,0.5223914050392704,0.534050721849249,0.5030517513372765,0.46942951717565995,0.4409345777231155,0.4427014477304376,0.4360543862913073,0.41379925171806153,0.3708733303416736,0.35315149862184736,0.37874926229784167,0.4202908493466344,0.42413523674920706,0.4557538560225818,0.5061434330488379,0.43946120939024347,0.3408420529283851,0.29665157000299747,0.37311162609457016,0.4800062210953917,0.572766018838359,0.5405813461949056,0.460251528243091,0.4109249355691982,0.4073677888169094,0.4016850128960092,0.4258306684026709,0.46343962964394514,0.5028708349402113,0.5474062310090368,0.5630571899133558,0.5272879279776146,0.4844645468523052,0.46457408172288384,0.45962110289915215,0.4645658141774165,0.4398615508765391,0.4022002070668034,0.37020432711628803,0.3939975630097474,0.4244098882907186,0.43013330260157545,0.46150537587559803,0.42830417625225214,0.32453458092619547,0.2201359804008174,0.12034344657193108,0.1180561142335721,0.21973145462311505,0.3307100575455246,0.4328255079746355,0.5430393202820811,0.5719390190767637,0.49824555698335793,0.43008543042531544,0.3950026829948534,0.37364200580642226,0.39396326623711975,0.4208657369849127,0.4624762277954284,0.5132135545002958,0.5463822637755831,0.5265855325688658,0.4841776608035171,0.4474581000791553,0.4346053254685236,0.4387533565890944,0.43675746392246095,0.39554971762947444,0.35675763245423875,0.3505499684819542,0.3826659203412701,0.40975730309829306,0.4223368071157876,0.4225250981330153,0.3491850243699983,0.25006640210287134,0.13729487736194246,0.0369777367384283,0.0,0.07891825557550103,0.18520315580100766,0.290407853836105,0.40448843682053814,0.4916332217089998,0.46219010336647637,0.4196405308375408,0.40795083051936043,0.41742696215054753,0.4467428022996729,0.4819409609265808,0.5360674282637135,0.5862879985650529,0.5875190537906123,0.5446840690246866,0.5002591668388696,0.4693655568704149,0.45397430813460016,0.4646902330042795,0.4561842619491481,0.420704945647449,0.39142073418147394,0.3992101904087102,0.43531027063593486,0.46102511798373946,0.4699684089856695,0.4567977352622625,0.3536271265950539,0.2670959285484007,0.17891348279052632,0.13722571351662394,0.20736087532849723,0.317425850360217,0.4227374078461983,0.529793066293951,0.642934862790808,0.6871801452731336,0.596115757042678,0.5022702069525913,0.42785496066330664,0.417045467411302,0.4191681215495988,0.44404463133484384,0.4704387405689201,0.5135369681536845,0.5636221604369003,0.5561840252927457,0.5136423669080745,0.4893078011629548,0.4734739831102428,0.47252686056551063,0.4958065610127269,0.5837694200051042,0.6836644042689115,0.7963116975382483,0.9097971163683982,0.9987795889209297,1.0,0.9046951648810846,0.8032296487008277,0.6904910660770631,0.586652581262241,0.5897929638341353,0.5818680444400472,0.5232330778133725,0.5022413335353262,0.47286567757562503,0.4472398454383284,0.4729174351665941,0.5019810325562872,0.5104092123613753,0.5107584330868709,0.5232334232753586,0.5685826026634806,0.6137889105419476,0.652442171815907,0.6500296611003602,0.6056755532058404,0.5520442835838772,0.5060652718832923,0.472676964914414,0.4700306365840876,0.4728647436244753,0.5283646005251299,0.6168953302625146,0.7167305247420348,0.8165705724494794,0.8884032768494872,0.847220437699503,0.7429137834840378,0.6339157356006067,0.540932830096883,0.5447183497162502,0.5588416747397957,0.4922744970992001,0.4695198002866756,0.45517930099205506,0.415004979973395,0.4172935073646298,0.45893526626780234,0.4874300136247718,0.485693378400895,0.47863991462098143,0.5033668980303596,0.5459856533209555,0.5839066546206038,0.5947981602123931,0.5713292931698217,0.5206913684995786,0.474891168543786,0.4467527388665795,0.4380590148154053,0.46550515917746793,0.5269035451263901,0.6105022463066154,0.7065597083402095,0.8049457585777069,0.8834638596885696,0.8593115228805783,0.7536594578814828,0.6516030508950954,0.5388592130600229,0.4785772982797907,0.5556510161246662,0.6004375019415726,0.54947711083125,0.4926007101827743,0.4846169477975728,0.45520302957239966,0.4317454805842811,0.4638375491592539,0.5014414019951206,0.5219273172455092,0.5116754922645081,0.515035976627475,0.5466267134572838,0.5938450220474967,0.627551587464092,0.6183289387440434,0.5782052341873452,0.5333396154745254,0.49577747979651265,0.46635975440866373,0.47272789842824636,0.47756117127608055,0.5454846313733865,0.6423414559061129,0.7426881768049673,0.8456292691534171,0.9392432492967577,0.9552059914642088,0.8709550597873572,0.7598980293801594,0.6657714564951105,0.6184093445524876,0.5433506443850113,0.4918829250379262,0.48621776884984547,0.4432503588907881,0.41092148703239095,0.43542342124775857,0.4760694439060926,0.4968142770589372,0.5035225028392114,0.5010864836013802,0.5278915797654591,0.5660261449721555,0.5949841979513644,0.5873404954685246,0.5405925937213167,0.49968619096393674,0.4724864101073898,PM
0.4197792879537241,0.4160133575847853,0.35524266678712424,0.2936863806512977,0.23705116120078285,0.20408963603212227,0.20625887876022153,0.21878133324093696,0.20775352413767156,0.20950545214760496,0.21456522184016436,0.19813028045892223,0.20029893586417957,0.21071965113526625,0.2123855480298249,0.21963256467975034,0.2586576907456093,0.33079482126387294,0.41021550121800043,0.4907193180286593,0.5720492021349264,0.6544425364553954,0.7370759173666772,0.7972260632088264,0.7510956117618526,0.6625977184205696,0.5785724114804547,0.49185082237809774,0.4059883383224483,0.3230852000354105,0.2519957697258861,0.1782830250578813,0.11012370509688396,0.0599584583194972,0.040680804883324484,0.04807557335970447,0.0915940102020989,0.14939162884011337,0.21820571244919007,0.2901798798592934,0.3577373376290778,0.4200108690345068,0.43338966756056574,0.37619165724712,0.3096430342192358,0.2559176653340638,0.20227479337276133,0.15967702172543796,0.1675840417381127,0.19559315490071394,0.19555235052846975,0.1844472430804096,0.19784258918278907,0.21968102304273263,0.20603040519332372,0.19756511754645012,0.20087666754541456,0.1975061100988973,0.23746457082307337,0.3179869981693586,0.3964231150342885,0.47667255581326406,0.5545638847513763,0.633189416826829,0.7030826589028694,0.6770311374412308,0.5941678282656269,0.505332727980853,0.42231378395809616,0.3343976076575992,0.250947503314922,0.16416498770409382,0.08537492760970267,0.024945456764429164,0.0,0.002593186109480339,0.044434499004390116,0.09991122851711398,0.1643449235888781,0.23811799981284287,0.3093032259287476,0.37989213266891153,0.45057562808745555,0.4791641941994351,0.4226821557103686,0.35901015685722015,0.2991539565346999,0.23951588794698142,0.19101545961861133,0.184252914325699,0.18912643099642512,0.19408192065245156,0.19929436986684546,0.17197051533284058,0.15528381083082432,0.17279490835737432,0.189636077711836,0.17340502739883257,0.17567702719450096,0.20222981078249003,0.22888734962288115,0.21018579465617737,0.18552854496366122,0.19223582427131136,0.22587584988755238,0.29427774077490776,0.37450548850347776,0.45431311194346646,0.5369331043729695,0.6167252652012309,0.6948098504727844,0.735434279141852,0.6679765870578516,0.5847762273311954,0.4955601138082466,0.41100795585048355,0.3256418797805565,0.24299347455287634,0.1628839231916066,0.09357898521057995,0.03921389856785984,0.008581413885507816,0.015777122192225823,0.0449380299729778,0.08702723248354571,0.15393353070122062,0.23170926399559755,0.313673355699325,0.40024660315448624,0.48442651537780934,0.5710031842371537,0.6605415326624717,0.7441532628109924,0.8312641563758065,0.9142757650484481,0.9549763131511106,0.9003862819285184,0.8221729856044995,0.7559714015194121,0.692399281811396,0.6164099102219798,0.536338367998958,0.45308518957655153,0.3736777509832683,0.2933256458074076,0.2332104239318309,0.2200925400567899,0.24068433788689303,0.25730481909149305,0.23858828216497852,0.2078365138484113,0.20108373255558187,0.21769157312818876,0.20554799273557944,0.18861462086687553,0.20616913981575435,0.2321853437735435,0.2269261809721692,0.21848429757751986,0.2164350430459281,0.2551093542031584,0.31371504335513767,0.37580322163048185,0.44100785548971144,0.5060164865373227,0.5363327184337381,0.49050265369271595,0.42065869876384276,0.34960110960627744,0.2726753836925506,0.20178236346410405,0.1360582177253522,0.07826184906708122,0.03085158006226263,0.030498438481239676,0.074112582958062,0.14426000942116568,0.22410217590165638,0.308453427191377,0.3929361057518228,0.47922460143116363,0.5635014574267967,0.6532822891376289,0.7433437381888477,0.8331122210196784,0.908893604396078,0.9031353364959189,0.8288660246277937,0.7500678797450666,0.6687933137196933,0.5871970329414209,0.5087772202420964,0.42175158377601885,0.3420161963199635,0.2677388583439788,0.2370844185617922,0.22433471170910368,0.22704892321519443,0.2450755795339401,0.2417613595623047,0.22205671616420863,0.22268936917867843,0.23419043203239442,0.2149640011166274,0.19338565597083046,0.22242078679613742,0.278110080585372,0.33252990937463056,0.39628324993999664,0.46054801778370824,0.48249813547976106,0.43228251743794877,0.36173252835827285,0.2905740740915572,0.2182800901049553,0.15046365194950306,0.09461919260678164,0.07164361943054609,0.09122578118442304,0.1455084728784901,0.22251867844978368,0.30368408392731405,0.3884337414702843,0.4713254170866945,0.5595511898063554,0.6434381346966735,0.7304127152468518,0.8195010770395181,0.9025089401509492,0.9841090841876698,1.0,0.9287382529365451,0.8458938435092795,0.7639959115833959,0.6845392429976456,0.6074605245861691,0.5262397629890136,0.44958547663159143,0.38010683547377444,0.3037044260555648,0.24919540324699496,0.2399536097384185,0.23777041055487502,0.227471837439585,0.2413419385704485,0.241822253871524,0.23689166556280106,0.24255094947642353,0.24264690345877926,0.22913542443947943,0.2576909805927159,0.31624009796387953,0.379552578188211,0.4416476144640449,0.48220595982427983,PM
0.3919229904014081,0.38150958341417196,0.369583359613447,0.36516448958035186,0.35633650811473494,0.3342894184953247,0.314567455682385,0.33369756829078545,0.36056508043031554,0.3755732664153788,0.33198950365652813,0.2451900150406483,0.1559523521393258,0.0691288588081358,0.0,0.03249762082919738,0.12144433360371076,0.20885516108636937,0.3040828426754887,0.39909865895534624,0.43534447075845195,0.38053311963119985,0.3290862337247846,0.2961907421750296,0.2707055412096975,0.26838547656884515,0.28513273336251643,0.32660627492294614,0.38721518887177764,0.4579341412059801,0.5217400124471085,0.57447967885106,0.5580781524536649,0.490544821101377,0.43308846651359634,0.3850860128905311,0.3605620244864247,0.3621341805953229,0.3529551221340208,0.3478064775128762,0.33536365363079357,0.3095340727402722,0.2717809121010841,0.23849635901954302,0.22059689525309745,0.23188826123184736,0.26895956346645233,0.33443133307280926,0.39857052535218074,0.439061670953814,0.3890079175247938,0.3015121411852393,0.2117682678475421,0.1494166588031507,0.18766797932735635,0.2726787742761134,0.36822454910713187,0.45571087754555606,0.5509584716297313,0.6463869879123694,0.7098497540488524,0.6756562662203693,0.6056411851149832,0.5819594841870375,0.5964573270249991,0.6076966690444334,0.5994705163053253,0.6103634755673797,0.6496703959869481,0.7019404447716417,0.7152609163041146,0.656109090054231,0.5858460706344508,0.5256726175994388,0.4677171514911884,0.42397412260938694,0.40413280758481207,0.39739045520643757,0.38624456512678584,0.3749009024945118,0.3595081815356851,0.35131706015153874,0.3250899476499298,0.3211747048308684,0.34034650121607113,0.3656400545443619,0.3800506680995941,0.34097811764825625,0.2561005118341293,0.16385529779789687,0.07673320297103658,0.023176378540288756,0.0727455886215862,0.1595611483975492,0.2548133437479394,0.3421415395267018,0.4381830731442662,0.5356368156602227,0.6078062948896079,0.5612835764061299,0.47922572239844374,0.4094685019886519,0.37397089567812447,0.3679448982168734,0.3594435822992952,0.37683681274533143,0.4029816145928691,0.44618845915671734,0.49747278527197825,0.5493660737915302,0.5677941479878696,0.5131644691872319,0.4589864487451192,0.41494597941619826,0.3871955120787103,0.37502651552031674,0.3712570581147321,0.37374368333286956,0.36113222036097214,0.36416720880089937,0.3442424830450954,0.32011384313827485,0.32591734577489495,0.34563717539331984,0.3697105327917716,0.39550911120987076,0.4328014452136868,0.4298302555450104,0.3986502392228517,0.38006262853162687,0.3767521590412706,0.405790501665495,0.41204699768579633,0.4172278803161844,0.42453936077772836,0.4225303530993898,0.44272124434783366,0.47849346109064284,0.5265254713584238,0.5868389737604454,0.6324395214223522,0.6190580189772734,0.5711569195016031,0.5162556698247598,0.46798744592766095,0.4424577581710776,0.4191831234065826,0.41928255999657127,0.42618408952897724,0.46703409651325467,0.5464442847765714,0.6332240758777417,0.7235127503411665,0.8085787578014516,0.8632636214558684,0.8226001756117984,0.7367528571344906,0.645295055194127,0.5477835385751058,0.4501613970782117,0.3525538387614242,0.2637401737629488,0.2795202299598638,0.36266974062815605,0.4321821684710412,0.43966844281204587,0.4298939129843138,0.39829060321692245,0.3823426897241067,0.3753523722894676,0.39419751931511327,0.40945484132380594,0.4179681297250326,0.428304668165723,0.4460882652075848,0.44363537213119564,0.4616123028836103,0.512832161014309,0.5709152541027853,0.6342889028135779,0.7011907482333868,0.7640088306186823,0.7819150850876717,0.7432604855719998,0.6869771589149627,0.6529199533037922,0.6546021263193511,0.6465259338777183,0.6351024229118911,0.6408574939433742,0.7119190109304636,0.7963217557636639,0.8850166172513307,0.9684845907392265,1.0,0.9348692361019122,0.8403187928427296,0.7543311677630098,0.6770297190977383,0.5869019016470642,0.5023281380895863,0.5171734938824062,0.5362085439817839,0.4835379421039341,0.4209623422787163,0.3621840171350068,0.29915753397858813,0.27198654768180086,0.2818378569137727,0.31805991382041565,0.34899211565062593,0.37047036407940226,0.38405803625353263,0.3884174565228844,0.3951140563092532,0.39944876501477067,0.425131702733208,0.4781900279018565,0.5378571831229579,0.6005122751232004,0.6360569535637293,0.6050917206123843,0.5450407562941035,0.4810338224429933,0.41617795916234224,0.35388776186286863,0.31978016695483635,0.3211689943028575,0.34069619253078187,0.38124670367565594,0.4502291796191722,0.5335582401540289,0.6074188596072156,0.6881473311148545,0.7764078945029653,0.8382047875991869,0.8026332144291333,0.7132631411944272,0.6160155782978021,0.5262972547614888,0.43413114491695204,0.3390040750179111,0.31599674465424243,0.3947842063938354,0.4431997844194484,0.42519238235095047,0.40553917520911575,0.3753401378321861,0.35742945775376667,0.37801351173117625,0.39722043014266006,0.3986463812299945,0.40760417165733065,0.42226075333327184,0.42569658151456835,PM
0.4238663196217929,0.45181637820839793,0.4148264485323949,0.38648069546338526,0.377694426773973,0.3768764745350679,0.3778569275419654,0.33642819309888017,0.3027651927439474,0.31205232929130133,0.3631455072834293,0.4275127039710407,0.46269124983187915,0.4512161108259307,0.4242671746316038,0.47588647236577053,0.5496417333707382,0.6543680696210568,0.7622083404540807,0.758356727024128,0.6494869344221659,0.5349378318554545,0.4259318267315715,0.3274160055066404,0.230596535761054,0.13006952132981064,0.05003395104182484,0.011438586024005382,0.0,0.007401235356622848,0.04205113085288348,0.10492318569132841,0.17512474541605227,0.25942450201351486,0.3474729952188351,0.4095252359977932,0.41401595601799945,0.39043235922929354,0.37143119215029063,0.3740888462896228,0.3586312998537369,0.3165142115577093,0.29916822108327246,0.3314824269394676,0.3964440689126323,0.4393153742818976,0.4665917822207626,0.4721544585411568,0.5149953988968496,0.6018742246176059,0.6919671399204597,0.6962083896294939,0.6022548308940077,0.49771254716131175,0.39993874587395783,0.30180480157261647,0.19316017466535085,0.1173938001082373,0.08279203754677233,0.06716287722265779,0.07348377261841854,0.11644160628413847,0.17661532034360983,0.25758260219233176,0.34271875058583534,0.41995574793460033,0.4835493484089639,0.47268999512309584,0.43444699612352444,0.40549502327194187,0.3895525444730725,0.37529630554438764,0.3267360851277017,0.2832664906212856,0.28539602493241967,0.3319908037439636,0.38989883533015357,0.41199708074113595,0.4224457204681329,0.44167069092172406,0.5220478462540306,0.6040948143190388,0.6627350365674349,0.5812547298624877,0.4785363747700826,0.3793095138625362,0.2816296833210452,0.18687142700693116,0.11015115407707876,0.05597415748246792,0.03130875151960888,0.028095966535665706,0.04166764094208952,0.09752950578229491,0.16850221295152856,0.2480989740294719,0.3335697133112481,0.41267186184184457,0.433628388357175,0.39073319557037456,0.3591789108019716,0.35288276189590073,0.3647574065910968,0.33889666849801214,0.29628652775064435,0.2817842838448703,0.31891829291117446,0.38490365934720083,0.423904439116912,0.4419827347067269,0.4384105997709109,0.49908245917806804,0.5868957308525431,0.6723236836274302,0.6508672511873215,0.5494498473954517,0.44747873539596705,0.3416179369956649,0.23571730866834306,0.1377048715890723,0.07232572213530819,0.048631783449951005,0.04979079434252798,0.08180374671645385,0.09566538532077118,0.12115499950902331,0.1939066306345727,0.29461725668391114,0.39363964559108267,0.4933784376565664,0.6044618864151903,0.7129509729930263,0.8164995902165142,0.9141269310248541,0.9189709192544182,0.8288879660346002,0.7178286703203125,0.6184731232463765,0.5322883978545705,0.49272496425514145,0.48204106860005025,0.4546077657035825,0.3912829541025884,0.34439364041161147,0.3553067379110444,0.4012387542066995,0.415110682405059,0.4042478936782059,0.4137743437784045,0.452228629609043,0.49655743063989854,0.4999272495615026,0.43888810740219997,0.35928687659149006,0.2769953035951134,0.20076067673517128,0.1313653109303945,0.08212803501504995,0.07744843422835679,0.09994356465086351,0.17504063605874576,0.27372256661911587,0.3724827232953598,0.4701392534100588,0.5719140111871508,0.673753652482842,0.7737793293095336,0.8725614903114418,0.8694350862690872,0.7731784745126862,0.6709431737234097,0.5891067174063189,0.5068745000898014,0.47290155876782736,0.4585392628215277,0.4276496491580013,0.36848631866471093,0.3377552522698406,0.3722518579890477,0.42210750470772407,0.43662246980172226,0.4540342770839718,0.47888125594658915,0.5174408756428797,0.5562266963637481,0.5387310490250643,0.4774524280713326,0.3979705866926899,0.3106113279140055,0.23501759203026484,0.17033796455231132,0.12754606354974118,0.12453302188427795,0.1478639271766986,0.2150403214614025,0.3124148271523466,0.40337949113021576,0.4896340679311826,0.5938641314054949,0.6954627505874238,0.7974551395309195,0.8932863573069181,0.8965136034533439,0.7999274293595451,0.6933918041129377,0.6176820167669606,0.542555504649147,0.5161462043238654,0.50098132223044,0.47345206114031235,0.41455868269781737,0.365350455768513,0.3745665460614438,0.4165059326867029,0.43430826070052797,0.43590691617739497,0.4504109039130113,0.467808782534028,0.4616958870983683,0.4016217255416987,0.3248795929084034,0.243305103146652,0.16872775994662126,0.09769296037515973,0.06146373440115083,0.055995044715381415,0.08447181230417034,0.17284062967082958,0.2743133042854269,0.37126440912001124,0.47372796535120854,0.5832800476060158,0.6978067679828222,0.8077207553810961,0.9167266354868944,1.0,0.9653141513658929,0.8614683158357592,0.7494351424105137,0.6382557302463003,0.5603391232019321,0.5123278867020615,0.522220174091335,0.5210762094040491,0.49435904538138686,0.43299989228460944,0.37562983391673344,0.3769961075937065,0.4327492779927091,0.4559834732327679,0.43778239864979884,0.43816688309544416,0.4628939406369428,0.5072645261639317,0.5231928052757144,PM
