0,1,2,3,4,5,6,7,8,9,10,11,12,13,14,15,16,17,18,19,20,21,22,23,24,25,26,27,28,29,30,31,32,33,34,35,36,37,38,39,40,41,42,43,44,45,46,47,48,49,50,51,52,53,54,55,56,57,58,59,60,61,62,63,64,65,66,67,68,69,70,71,72,73,74,75,76,77,78,79,80,81,82,83,84,85,86,87,88,89,90,91,92,93,94,95,96,97,98,99,100,101,102,103,104,105,106,107,108,109,110,111,112,113,114,115,116,117,118,119,120,121,122,123,124,125,126,127,128,129,130,131,132,133,134,135,136,137,138,139,140,141,142,143,144,145,146,147,148,149,150,151,152,153,154,155,156,157,158,159,160,161,162,163,164,165,166,167,168,169,170,171,172,173,174,175,176,177,178,179,180,181,182,183,184,185,186,187,188,189,190,191,192,193,194,195,196,197,198,199,200,201,202,203,204,205,206,207,208,209,210,211,212,213,214,215,216,217,218,219,220,221,222,223,224,225,226,227,228,229,230,231,232,233,234,235,236,237,238,239,240,241,242,243,244,245,246,247,248,249,250,251,252,253,254,Target
0.16759926776972067,0.20863509823594573,0.2514205857317986,0.3073822364858705,0.3642413147894281,0.4145207763009613,0.4692584131206594,0.5115182756055829,0.5474842781342995,0.5594628399581065,0.5338768412218609,0.4794976558948507,0.42785702692378447,0.3778421128125884,0.32766216892854727,0.27347777985121446,0.22103132663056657,0.17281708740390522,0.13406103249896928,0.09648758389627377,0.058923863861346515,0.025523899341845624,0.01898588417092384,0.015767815137716745,0.0007614991942022087,5.930962811051543e-05,0.019171654416587636,0.07670442845540748,0.13701164836793556,0.2043759569210173,0.26732786425128374,0.342228400569633,0.41728683024713265,0.4828337662434965,0.5484580003906387,0.6234757165724711,0.6986216064478987,0.7737674963233268,0.8487446318422354,0.9119939337269245,0.9440479106928938,0.9146448539095369,0.8527299830627624,0.7778642949491132,0.7052913046423797,0.6583580023606728,0.6050470279025459,0.5352768853197034,0.4601414614850121,0.38499557160958364,0.3100495216748991,0.24605934563581577,0.17886804563978442,0.11612952928330689,0.114318300330285,0.0952427032093972,0.04306430852527976,0.01967932498715186,0.018972265747531303,0.01897201210867161,0.018161137570020802,0.0038818836777729793,0.0,0.01997072176484238,0.05006188394588973,0.05762552687556166,0.06332380440807528,0.06430051002753423,0.0627431784677368,0.07636482441518089,0.07843165961294307,0.08837903227931276,0.08492623536017696,0.09461622387563473,0.08573049020935075,0.10962687742174815,0.15020371568903856,0.1868891770032728,0.23649813377994144,0.2868690283946722,0.3424628243018031,0.39092034134968534,0.4369346606516227,0.4869074738060486,0.5306052878059897,0.5336835749013615,0.5075363159824469,0.46666713593428044,0.416818438249865,0.3667492782645292,0.3196438791364393,0.27267628433022706,0.21788092093158573,0.1778535248822699,0.14048018277882957,0.11678120732593378,0.10417439426606512,0.08299540071403388,0.09343076895608382,0.09470342620740935,0.08014492917716742,0.11024006377871576,0.16274177138400203,0.22116303887358058,0.28048735129452096,0.35352253075171536,0.42482620823641914,0.4853888810450506,0.5596284083460845,0.6347741044798774,0.7093326917384566,0.770161171269315,0.8408806755207565,0.9113984992742683,0.967949428059006,1.0,0.9712690305166625,0.9022832763636259,0.8400419630414007,0.770941807699872,0.6958159576836294,0.6206700678082013,0.5455468303349131,0.4760265717518335,0.4141228691102592,0.33942277916582286,0.2647011065241722,0.21541903761257553,0.20477288912114266,0.1902376534909207,0.1844076124874343,0.19033702240500272,0.1697405173001978,0.1547699158487843,0.14971196084884264,0.1297624408556124,0.13633929029501823,0.16340023792380443,0.1735671221755184,0.1709413466796521,0.1601370932825863,0.17071150948838554,0.15618971658437175,0.15432636437816605,0.15434356390226078,0.16026721157911528,0.1659136527767866,0.1565518896122442,0.18083875175055475,0.19866925129679602,0.23765552758586672,0.2784095773026678,0.3278192129531652,0.38373277144535045,0.4371832029950884,0.4898264668352459,0.5395868820119909,0.5734594783167335,0.5683876416155855,0.5333620988257879,0.4832429460926866,0.42278346624430574,0.3715380653131355,0.3268456360730849,0.27667775488702473,0.2219426962512947,0.18077618886223767,0.14267476183962646,0.10249079050610543,0.07767906092602006,0.05822003535285791,0.05764460928773074,0.05764460632984347,0.05772929753994438,0.0693768090119029,0.11401330450222469,0.17789391441752578,0.24054349669575137,0.30858305179202716,0.3640565720005515,0.41859243578700633,0.47794851377830483,0.5515915005011283,0.6263047364719871,0.6883159614246326,0.7577151553000214,0.8317050792859879,0.8906714935164257,0.9211272136141342,0.8796552051745747,0.8110479654285614,0.735931793335002,0.6634434683547452,0.6034615049577838,0.529827243175625,0.45468182064643425,0.37954464609948824,0.3081957354023106,0.2478276911584425,0.17519837094827384,0.1562932904661931,0.18425220557971045,0.16701781294545137,0.12729070203717852,0.11564742605371636,0.1065497861203224,0.07959333305724137,0.06899849124457669,0.06383431801161077,0.039143034859556725,0.024876665882740845,0.042016615405899405,0.07740055668454504,0.09608226395941077,0.09625726215700903,0.0889014349982542,0.08898433821147611,0.07800520707991776,0.07698109755180171,0.07698083429980729,0.07698083429980729,0.07698106797292592,0.07795052785426604,0.09573178540558258,0.12796869299195102,0.1694369449278743,0.2141704206861208,0.2629405144840753,0.3130807447755726,0.3634363405619716,0.41901878813742455,0.4704917039472081,0.5240646645921765,0.5561684038815042,0.5520265695067854,0.517481107300394,0.4688030736574569,0.4161150962820086,0.3660321355145775,0.3142543260435309,0.2546678335929884,0.21365258412660548,0.1606650995232739,0.12277222157610224,0.09318485108449437,0.07714658691560494,0.06652831106371071,0.05771723675494256,0.05767871972075289,0.06461419251329525,0.0912483655441565,0.14663628227897973,0.20598521295850825,0.2794352166170766,0.34710374513058984,PM
0.0702400253254386,0.04269666428849439,0.015378014334059498,0.0,0.0028003705053532,0.010191062227594139,0.0221871685139462,0.0531979786575717,0.090819414832079,0.1289256104759261,0.1673079290564773,0.21040238751742713,0.25472180431259484,0.29473347503579184,0.3362747087519672,0.3754907791389589,0.4188768612755672,0.45948183515194996,0.5010502138762981,0.545536156104517,0.5888411010672251,0.6281404294076508,0.6720988576719612,0.7166129886664933,0.7588636961301113,0.7979332716222928,0.8322487366392649,0.8734715637454128,0.9135492016941961,0.9519601910217922,0.9617626743829503,0.9303404627323008,0.890770911119512,0.8466103849524199,0.8059324592622307,0.7644359372558259,0.719957187460163,0.6773725812161714,0.6376461053403281,0.5933855041314954,0.5488526643322152,0.5043197176815725,0.45979028997142357,0.4164202077751368,0.3771666588681829,0.33372867143215756,0.29436151140519085,0.252045506104153,0.22215775628063883,0.21528352618834157,0.20999913016169935,0.2015296626647919,0.18482215581287498,0.16789542002745128,0.16483447052872646,0.17814968330266467,0.18158319470364204,0.17962175974362216,0.1844231404005795,0.19679781937603835,0.21259885634984588,0.21061633259994605,0.18631178031582019,0.15660400962240872,0.12455472476612062,0.0903976520678077,0.058337966476605385,0.029956050718871974,0.007821049707015137,0.0006420867870372549,0.005529217322561286,0.013022005269577863,0.03712572854017948,0.07258009126769427,0.11078674033442326,0.15003103412881613,0.18910656392653713,0.22826473966785354,0.268519004162986,0.30977171283848925,0.3498950411427736,0.3919019827358946,0.43329402786700955,0.4740492684370504,0.518366272766677,0.5588508635565624,0.6005464488368454,0.6450414575127975,0.6892024610945252,0.7287476442641639,0.7716078306873385,0.8161327864155689,0.8602006339590847,0.8995696613746812,0.9376134519868263,0.9342806905110629,0.8980887642780356,0.8556365591961507,0.8164243131961303,0.7727032985111829,0.7282595358424228,0.6874013408098724,0.646093097188354,0.6016229400598371,0.5588813172021246,0.5192601313644337,0.47506382339765685,0.4323031127922802,0.392695806732302,0.3493481369120258,0.31014139234991844,0.2666180625892801,0.22787003676097084,0.21083115218421644,0.2080783325463592,0.20222632640961968,0.18831426223918635,0.17299732712440974,0.16572262282758954,0.17519225207092715,0.1816924901738558,0.18205685873819732,0.18710337679858713,0.20171156774564303,0.21816741113774352,0.2196910530958377,0.19459636402945935,0.1638511077403958,0.13206962714192783,0.10060496084467985,0.07080720527724516,0.04155605579530952,0.017058790909377453,0.006392618865202926,0.010062916867531801,0.016070659672205,0.03667716622306083,0.07261964829781975,0.11083912700846377,0.1499888159400703,0.1871940459437088,0.21772051397650227,0.2572193020331889,0.301613294994565,0.3428532694308267,0.3837775067893282,0.42789543396796825,0.46750407570926933,0.5098142246086362,0.5454631867317558,0.582984732227502,0.6229427863606735,0.6672664442913802,0.7113790135828307,0.7508420317059267,0.7938316242323834,0.8383499509883657,0.8812166245840557,0.9205908845234497,0.9541726694512763,0.9447105084185577,0.9084273518609859,0.8676321468066229,0.8251445208364482,0.7854101433860631,0.7411604310358965,0.6985663164266042,0.6588477421253031,0.6145890378419284,0.570056199997247,0.5255232533466024,0.48099032005238007,0.436590026244141,0.3961400125115625,0.35462996094134025,0.3147326821504427,0.2727639747045648,0.23506087511772,0.21751865161316808,0.2119514082645121,0.20637964183420887,0.19381864586801056,0.17400060068595102,0.16291856085444045,0.17357747292840464,0.18170671947195516,0.18199137749650307,0.18622297605516314,0.20004390878734746,0.21422471176471924,0.21067826450563787,0.1863654934679736,0.15660805928586108,0.12363803626794867,0.09212744402476447,0.05883435167466089,0.030720847631765857,0.01168868253696409,0.008948601465169292,0.013283553953486904,0.022645086781285406,0.04931948353793769,0.08559492307594507,0.12385084836398697,0.16290340134727976,0.19781512899802223,0.2289899364528002,0.26948810389456634,0.3099453645919189,0.35340627831363836,0.392602394231078,0.4362046860808294,0.4764045659520554,0.5173832834969007,0.5517098884028707,0.5909415054043329,0.6310539605966833,0.6754112971518363,0.7199435699738416,0.7639073863802747,0.8031790621861487,0.8465066970811036,0.8910348869960222,0.934854536451395,0.973744589816682,1.0,0.9765254350873352,0.9368153908490927,0.8925320993310896,0.8513502384723216,0.810368169847031,0.7659128171948054,0.7214641492637773,0.68057286172542,0.6392987526965309,0.5948238655841852,0.5513453069511606,0.5121077614454846,0.4683594459496848,0.4302444678645315,0.39877619632013184,0.35597241076561803,0.31590356870507585,0.27375727762229884,0.2323554938610538,0.21528056026145792,0.21122109097838904,0.20558800350464945,0.19463554885083234,0.17690969688292613,0.16079727540118627,0.16165847318751536,0.17651436990217684,0.18047649376915864,0.1753762707946932,PM
0.1433108929477599,0.16790056070286463,0.19706863174123457,0.22625951573185754,0.2403204683314858,0.2237113322914296,0.1941492402977375,0.1629543977027451,0.13076574750311498,0.0972036197689472,0.06625342687064684,0.04020343012160377,0.032262603992692984,0.05042209530343045,0.07336757287759255,0.09476589186411,0.11143093887190736,0.124411006628671,0.14190882788316783,0.16061652970957285,0.18773804289759333,0.21933028550946954,0.25377325995197764,0.2932405619770265,0.33355443868599666,0.3708192833925784,0.4080729987906079,0.4463727105598728,0.4825734658772062,0.5179780059704125,0.5485403100269425,0.5799848429022175,0.6133578940197842,0.6525978649620211,0.6929605469257484,0.7314011007300946,0.7650070473936191,0.7960095022792145,0.8354471701033174,0.8758219967507551,0.9151250523489517,0.9507684875883894,0.9887902136902819,1.0,0.9700031569254041,0.9344973095097359,0.8946945786754247,0.8544386085485597,0.817757734483661,0.7798750115754313,0.7395264494608421,0.699147202201636,0.6587679549424296,0.6183890267065238,0.578418049705346,0.5427653455042852,0.5073091639841242,0.4696196167110399,0.43264417782937714,0.3951149905579342,0.3547900363366191,0.3161624254637262,0.2801208736332347,0.241073085666747,0.21659320610761668,0.21740319609104863,0.21090457872941692,0.2002781942860271,0.19062181629926156,0.19602470144292983,0.2039509200955859,0.1942426246395682,0.18296906197083473,0.17142420080541665,0.1590775772807954,0.15417275638537442,0.1628347436321479,0.17308966627845523,0.1918268315312629,0.216012739715011,0.24520973033125804,0.27608999329587636,0.30530270992550224,0.3348597589842185,0.3479139599040936,0.32964871325156564,0.29875163403644855,0.2654249861380803,0.2337078697869016,0.2020054175962197,0.17016914621072077,0.14145300058629362,0.11559615902483455,0.0979039239397439,0.09160017236589535,0.085627358050404,0.07699573587572384,0.07483158892845831,0.09492399151335618,0.12625386268108607,0.16165830714147866,0.19837615894754135,0.23392892228325246,0.2732278539259331,0.31006404739271576,0.3477726059416216,0.3880741257564181,0.42569953417070827,0.46157602452885127,0.492697901901613,0.5235942737579368,0.5568828068098478,0.5926335936475063,0.6326785132101608,0.6730567468113654,0.7128193412105365,0.7484252491252467,0.7878494208068744,0.8282062252934123,0.8663635980378207,0.8957571737433226,0.8856692879034206,0.8476044719953192,0.8092626296736513,0.7729894710241084,0.7328048362781566,0.6924280855145589,0.6530209244570068,0.6174124755419151,0.5776352818917211,0.5372722180563353,0.49883156406771756,0.4627259025742564,0.42597764979840413,0.38875701835388765,0.3529878136697372,0.3140195820641615,0.2737188664142699,0.23659473343620296,0.19918448993718096,0.15927511099731995,0.12356487681084871,0.08828083151219202,0.06431304693153927,0.047449285272462505,0.031820599950764805,0.013863852358553697,0.0,0.007992635943838922,0.0301332334202965,0.055255165179524335,0.08218365929077764,0.10668796105675538,0.1309113440733849,0.15505391936041935,0.17755477443133294,0.1925267229339841,0.19654311659568202,0.1926492894383599,0.1900038193524426,0.20223049991150577,0.22292345647835854,0.24630310277627043,0.2727067749616964,0.30173074189806937,0.3327833618787531,0.36385814787466286,0.3951991588840448,0.4177497402264977,0.4078743149239,0.37974078026189273,0.34832646103166687,0.32025397852126447,0.29294111144333657,0.2588477632547509,0.2257720027719915,0.19783189726533712,0.1717090161364675,0.15358506708898234,0.14650807609714434,0.14407689152289682,0.15261946151178962,0.15678909600878865,0.17571718124582636,0.2061594886541428,0.24145803493860651,0.2791280108716462,0.315240126232211,0.35374693419526493,0.39411211177805117,0.43448538892845223,0.4734639582815928,0.5074200963012979,0.5343696174577163,0.5691976463725382,0.604992070505531,0.6450242587272966,0.6845155237640436,0.7200969947098125,0.7598167678286835,0.8001948992578115,0.8405202539612168,0.8779071029285045,0.915054219702068,0.9551841673080707,0.9859753401782542,0.9772819947996733,0.9434962801133745,0.9045471794680137,0.8641994593121524,0.8261896160515635,0.7896268649416319,0.7493853807530141,0.709541469954922,0.6738951473294034,0.634592091731207,0.5942159277271889,0.5538366804679818,0.5134608327208025,0.4741578617357137,0.4385315368724775,0.40022499929201205,0.3643167882287667,0.32433290553322813,0.2879381713741952,0.25926837166725847,0.22215256823658203,0.18349004865381058,0.15288171152880914,0.14808521212508408,0.14512521292159086,0.1411698810782659,0.13907672942093907,0.14676378889556185,0.16208446704207058,0.16959903334777804,0.17172153699622228,0.16463361981147784,0.15185003288019006,0.14147601165266088,0.1365586014421849,0.14577078264141374,0.16343935176687763,0.18121879637818206,0.20789836193583933,0.23788454802740955,0.26799065792044996,0.299323702712757,0.32876230115833993,0.35305384814822205,0.35631643360415655,0.32924882481813944,0.29891621994955353,0.2668348267942956,0.23570263314213424,PM
0.014396594721576061,0.02844870973747904,0.048326553293157826,0.08005979544414954,0.11354449943942324,0.15358239395158124,0.19435777351661,0.24165017305021852,0.29413432445679266,0.3380838121553391,0.3914172345378182,0.4457196041234823,0.49690225226463003,0.5418049084852061,0.5956080838851778,0.649788268365243,0.6962842329718795,0.7455248651694655,0.7985924878837438,0.8426701502861795,0.8914039471767734,0.9224471628434561,0.9074829558246029,0.8646317233377774,0.8139662537009396,0.7597008735964019,0.7102204401105716,0.6639304060219282,0.6097872324471436,0.5554761708733147,0.5011653066882058,0.44753399214829237,0.40303671022328125,0.35128098648509143,0.2969829238422892,0.24639041737458411,0.21223301290798746,0.17215350801669782,0.1268236510848535,0.08947376211292335,0.07741033789308638,0.06694549941061556,0.07061822075534163,0.07155598023272125,0.04651409126437622,0.048078116461773845,0.06647604015843545,0.07805285974819265,0.07829641970344303,0.07829641970344303,0.07829641970344303,0.07829641970344303,0.0782959597685613,0.07711124141063852,0.06332831047969778,0.05258925621478472,0.05219025438520308,0.052205745159071615,0.056300606596070946,0.06703989255863352,0.07770779767394398,0.09091083413683432,0.12484030731641527,0.16106055733180824,0.1972509916710501,0.23348402654860756,0.27249084170588844,0.3129338859066704,0.3445617231597349,0.3629793131255519,0.34691209559283154,0.3115420377198519,0.27533130874766254,0.23913967258102442,0.20278988721834335,0.16367535818961976,0.1303271549217513,0.09429686034039575,0.060385070839279464,0.037130871829607504,0.01952878519028589,0.013507041648423534,0.02428186396250087,0.03801928094735452,0.044485079636149116,0.06882543523118434,0.09886434749630224,0.13795356590984253,0.17652558663678342,0.21902491754426334,0.2714886201855844,0.315761733240814,0.36772102303266063,0.42201595270780734,0.4727496916312717,0.5179698910500403,0.5719076984559726,0.6262184150786392,0.6795005228541076,0.7236507983287752,0.7760079135122413,0.8234660901182531,0.869731616298564,0.9022905761497837,0.9018867559636301,0.8660281496948938,0.8218160728003756,0.7703086818209046,0.7160034933007671,0.6616924317269386,0.6073813701531092,0.5530703085792807,0.4987595344647531,0.44526284426521867,0.40108310553839965,0.34887736269541625,0.29500635885480264,0.25160962291396904,0.21282195688331296,0.17061938296573098,0.1282550885808118,0.09067668884046265,0.07801226092142777,0.06900367425323983,0.07419714361811369,0.07268222136461988,0.0465888708999076,0.048691777665521574,0.07228656419169255,0.0782590620014858,0.07829641970344303,0.07829641970344303,0.07829641970344303,0.07829641970344303,0.07829641970344303,0.07829627980658316,0.07770246320269658,0.06790882681760468,0.05727067022000476,0.05223708905838409,0.05681637483409174,0.0659481197984011,0.07629420270833176,0.08199229528302832,0.10464038694293931,0.13309986033074317,0.16842645577185378,0.2074187418748732,0.24541608181027907,0.2855737493682504,0.32589625007765166,0.3578456180571865,0.36229922304769513,0.3359297653941016,0.2998576413280838,0.26591066532765595,0.22815916185060736,0.191228813561509,0.1550076452069229,0.11879505083429098,0.08157104587664676,0.04495715091061214,0.018965090476344315,0.0024274797080985344,0.0,0.004670083186549601,0.015378824916837175,0.028686199350357988,0.05159757017428657,0.08537390708798354,0.12066011678947852,0.1635022956372496,0.2094981213535827,0.26074134874384125,0.30544807405489394,0.3591667805711132,0.41175043019723656,0.4557065229735744,0.5090485383990555,0.5633592090282344,0.6176588406433816,0.668421233346697,0.7136211640506875,0.7675503726644313,0.821653705973219,0.8677405564995841,0.9173858135270612,0.9652399695789056,1.0,0.9959073760485002,0.9575647503005169,0.9072802903636616,0.8529840783823563,0.7986730168085279,0.7443619552346976,0.6900508936608691,0.6357398320870407,0.5814287705132108,0.5271179120772884,0.4734951905803788,0.4290181773701458,0.3772337998521027,0.3229360235472436,0.27197185546404556,0.23073527611261602,0.18769048479618222,0.14607087647499206,0.10376187775157542,0.07025772155311749,0.06394443068467703,0.0536298889814133,0.05152491519427871,0.03725588350370179,0.030747420785518287,0.05360118596726515,0.07293752824610422,0.07926027639959221,0.09247968914233828,0.10386311539629123,0.10440209634087116,0.10343888045681204,0.09308831504451609,0.09160711607715166,0.09834240347474177,0.09173726044995734,0.0805645594193849,0.06984782568283299,0.06526203372491768,0.06529014261505806,0.07091782137675073,0.08428384058493821,0.09652237555094167,0.12491342436058694,0.1554620985458839,0.19165001499471712,0.23147436113275166,0.26912542426750186,0.309721957153696,0.34914806053020486,0.3754397072778892,0.37194542039670786,0.34517103763521195,0.3071200489905608,0.26743825695569967,0.23049016119765886,0.19422607016015636,0.15519302596323925,0.12149076203026565,0.08342608409048724,0.050223045979478353,0.026381888785546703,0.008366363073340821,0.004749699336169311,0.01374761824551074,0.024060432126079778,PM
0.0932716261463773,0.06755964899997169,0.05319782140335172,0.048592399074596004,0.05957433707244264,0.08744806319806919,0.1310539894449836,0.17823189780520998,0.22639280902677594,0.27634234551591375,0.3255687049660454,0.37901585217821854,0.42768314615780145,0.4785409139351413,0.5301835811628883,0.5708350924047405,0.6162117420252493,0.6688301163135391,0.722595680758189,0.7739396208354892,0.8222131449036274,0.8756922011502177,0.9294709764903075,0.9799389208544746,0.9894835880191377,0.9518295414751701,0.9027292059101715,0.8551226953580735,0.8021959710168773,0.7533958686982962,0.7026810146207982,0.6492090246585254,0.6008522307748485,0.5496172800490626,0.49603675738092834,0.4472247505161644,0.3965244709862348,0.34385940991227315,0.2963174983705117,0.24375128750371533,0.1953836446787427,0.14473976964169522,0.09754580232421173,0.061812265900258456,0.05443333256905358,0.045789826195733685,0.041921491681181866,0.038348965186571826,0.05128757332257794,0.05629277069280203,0.06142705549686145,0.0644411446807438,0.06643391619068462,0.07626764835925992,0.09216193834850328,0.1147930371944974,0.14446658290070347,0.18022799950707902,0.21724189046192532,0.2553729366485946,0.29337765931751014,0.3209150616105718,0.3165973275594245,0.2815888380629241,0.23952410423350345,0.1990136536197975,0.15289237768566966,0.11454435783955152,0.07572507478694179,0.044719813965559574,0.023933809664312022,0.012412085204356327,0.012678248850091611,0.02013308947221848,0.05187010245432466,0.09380536017644547,0.14182289895060363,0.18938108120637343,0.2404573368329117,0.28798893537413184,0.34057525587148163,0.38891630700970303,0.4401707902364982,0.49393506700042833,0.5471325090186783,0.5948465409760526,0.6470211852862664,0.7008001442534828,0.7545703922982825,0.8060610289276768,0.8542222754887745,0.9072712673706569,0.9549124924931722,0.990037736795017,0.9693478947196432,0.9227726615424254,0.8715457449917876,0.8234672411282444,0.7704139023719998,0.7223466767756921,0.6711060092922883,0.6230494214496458,0.5714356091237873,0.5179049346121369,0.4694328440607922,0.41834876644720165,0.3646510362324562,0.3146235153673811,0.26518448681491025,0.21249221108570993,0.16503083183856182,0.11603789690463029,0.07042770547921373,0.05431087322457828,0.04844743080146929,0.038823555548929134,0.029787671501493307,0.03808971543235029,0.05361712741330105,0.06098217473399803,0.06157039341155235,0.06678622527418576,0.0659099930969318,0.07114206304197235,0.0790511924049242,0.10054873864569891,0.12986032105448486,0.1643691083538874,0.20004563319769741,0.23934957631709408,0.2747647663112103,0.30768755862473074,0.3100188837766964,0.27942185076539916,0.24017840518774292,0.1993592064469114,0.16031106444938348,0.11764550152025355,0.07549058841842271,0.04243507916638989,0.018637518356143135,0.007857790840682277,0.0,0.012804280460190665,0.048304278422307334,0.09366347985884338,0.14047541600783897,0.18762947734485258,0.23940106949381068,0.286927534254533,0.3397213353709172,0.39277740111266524,0.4403680079163659,0.492802968183911,0.5465449459135545,0.5971167258582755,0.6460478375490599,0.6996640651199333,0.753343775537382,0.8028104171331867,0.8528114416740489,0.9065081200832728,0.9575598543132622,0.997421620475309,0.989493448779815,0.9408807229687843,0.8943905347316781,0.8565817835702116,0.8044295828908892,0.7553621105232864,0.7049418938539034,0.6514192804644416,0.602826873122652,0.5518830295369122,0.4984606787109527,0.45028323519920455,0.3988152534971434,0.3459717833658553,0.3014738118478695,0.261135536995589,0.21802731604310166,0.17708651583533586,0.12609914368778874,0.07918119969725201,0.05083969711916758,0.044537665861417386,0.03640119469633696,0.037174913487176386,0.047079292591373,0.05997410941098136,0.06439466834382723,0.06575162019681491,0.0736390339242241,0.08194743298610829,0.0987640401481058,0.12674707852117328,0.1564679577048571,0.19036046103125726,0.2288543934534648,0.2707735217263014,0.31235390798068297,0.34557471483743796,0.34927943372043546,0.3211854735812545,0.27902388315697424,0.23131508814209445,0.18915911373916372,0.1461019697749213,0.10627143501882608,0.0700979890183191,0.03962793761723926,0.016722280809530643,0.007199235733947651,0.011305061557775886,0.03497518467899563,0.07248531176014228,0.11728949641822428,0.16352805528521164,0.21399705780350198,0.2618168823073517,0.31376045145397247,0.3668618385910034,0.4144984015689446,0.46683643568216393,0.5206060529965804,0.5723406046376052,0.6203253475612425,0.6736966356426053,0.727447909083559,0.7781709972950681,0.8269643940307669,0.880561084786478,0.934334750125994,0.9848298316687929,1.0,0.9663780500456571,0.9280454765979682,0.882481826201698,0.8303758704805917,0.7811669777753996,0.7309038581079592,0.6772504519280924,0.6274878943051474,0.5777909195624837,0.5240906705552244,0.47073924049324867,0.4227994136250597,0.37100373177374335,0.31837536848405557,0.27082468643551105,0.21805979524370178,0.1688229073650156,0.1192084463812102,0.07530097870851105,0.063473178648356,PM
0.09331742055150682,0.08760775051075642,0.09135883503456865,0.10019883858848155,0.10051129314271856,0.10250510970073057,0.1127384608535702,0.11346587939199626,0.11346556846909417,0.11235544390320351,0.10121428849353942,0.08756398157027068,0.07134516700351146,0.05506119647541574,0.036999326700001944,0.021222188557711963,0.01058360486658616,0.008509529301578667,0.0,0.008990582861905683,0.013015113583677795,0.02511061616338761,0.04549345641889557,0.06986963489968145,0.09452766377686839,0.1279760944202497,0.16653929890408392,0.20722299045314774,0.25077303276389706,0.29661413164175965,0.33584138391428286,0.38404083024254154,0.4258220042780332,0.46878205651025384,0.517498359671364,0.5644350305624766,0.602926231768866,0.650883045176283,0.6996372087898042,0.7436745682937609,0.7844144200684635,0.833005816003018,0.8760076703455555,0.9177497406950703,0.9660411440695258,1.0,0.9980507951245015,0.9681108832752483,0.9268075711792969,0.8883634287165587,0.8415157433074216,0.7993695519046407,0.7567818860665101,0.708169625609516,0.6670364498528456,0.6234132859902224,0.574664443090342,0.5265482343228105,0.48791477372798564,0.44127942858690794,0.3927801914964264,0.35272163087512576,0.3078864555187777,0.2607084349551121,0.22219207473846536,0.1745172216055928,0.12635309362842007,0.09391574457588359,0.09003420727094902,0.09990951766333644,0.10050897665800873,0.10050819935075417,0.09904332697299134,0.08269742957826587,0.0739898306134843,0.06194780302301073,0.055434944682617004,0.06715733944573765,0.08671290584144709,0.10288521923118576,0.10574084541709627,0.1005452192741143,0.10050915391797322,0.10050915391797322,0.10050915391797322,0.1005110696471676,0.10235420459573019,0.11264280922901371,0.1134658016612704,0.11346628984413654,0.11346167905987681,0.11120803486066588,0.10104973157655683,0.09329360269201858,0.08100613221204434,0.06309977772330555,0.040513977211606544,0.02380248204936164,0.010917401835348617,0.00980942367955473,0.009809202434829967,0.009812147747833677,0.012257966312632984,0.022689539722065444,0.03727946902556356,0.0614853818253116,0.08656022797590257,0.11836762267834722,0.15838484739878922,0.19725219387174286,0.23545829575531307,0.28060163120731696,0.3192340595041969,0.3673502682717289,0.41612974138998693,0.4649095472296607,0.5136893530693345,0.5624651840121953,0.6081966732309239,0.6475426838389864,0.6958400286390258,0.7408244292987805,0.7807642315845422,0.8290523251133011,0.8697850636788247,0.9138068901671694,0.9559173971255768,0.9887343065676513,0.9868419665671175,0.9578286435982379,0.9187442296526993,0.8802219163762692,0.8334949171845074,0.7981115790364108,0.7703273228524083,0.7248959646813691,0.6827553285691708,0.6401676538098817,0.5914321686263149,0.5426523627866411,0.49394099352948784,0.4511839275723273,0.40921023098502207,0.3605929601023865,0.3188601700583318,0.2796058286141343,0.25042626174005944,0.20423784720541382,0.15590238934773515,0.11801489072100901,0.10095405441593908,0.10788799652683512,0.12288932538174091,0.12641233439492705,0.1262092957584997,0.11716675477646943,0.09844483779464541,0.08405047292822143,0.0687904920292568,0.06318244272986684,0.08131498896691314,0.10169058564799771,0.1129299148304761,0.11346623810141843,0.11375188455718899,0.12233255874786053,0.11665749580137597,0.11347052213690167,0.11347026474094957,0.11651858136189475,0.12611643880774892,0.13447238710724063,0.13935745520561715,0.1426198236753624,0.15713113035873238,0.15573312189970157,0.1523270801775558,0.14778744483000583,0.1380855978838067,0.126436045272591,0.10928813917702263,0.08989392852867617,0.06502148906557981,0.05513026471629212,0.048727668956972,0.04866585209232932,0.04449029207047195,0.03597942712746338,0.04028212490333294,0.04991500680429617,0.06802223283827713,0.0942936016192637,0.12648772881271908,0.16161717955486887,0.19925565156171343,0.24601840068911418,0.28462304405003414,0.33114919461347503,0.37028409546176144,0.4161379065132702,0.46420032278212764,0.5028948205020858,0.5495157112819475,0.5982584605165955,0.6416745265585515,0.6830106885902825,0.7316738945233454,0.7793489195634873,0.8178651727262354,0.8644802016707152,0.9032701430981547,0.9448146378934079,0.9501851753332557,0.9206261797322766,0.8839597159433366,0.839237452844233,0.7977125062305443,0.754558275325472,0.7114313432116584,0.6698425811056175,0.6212463482918396,0.5790982411598646,0.5365105664005752,0.48777634670712944,0.4407752722380227,0.40219955961708065,0.3546386287177019,0.31443203705627454,0.2697733840903167,0.2210858042469641,0.17853172456486543,0.13636019008916955,0.09029174695061704,0.07577695538162743,0.08648124557865433,0.09834591381837177,0.10180716067305262,0.11046913768973887,0.09801321134381036,0.08197388703958941,0.07453320809888764,0.06245845172510611,0.051710588858410844,0.07140777644547658,0.09573387440223291,0.11230755622013788,0.11346556846909417,0.11346628984413654,0.11346444651534915,0.11149498973433536,0.1013503024468494,0.10050931806728514,0.10050915391797322,0.10050915391797322,0.10050915391797322,PM
0.006864490327777251,0.03911653060064535,0.08277916663347473,0.12922752906626345,0.17602545845051654,0.22246004354726678,0.2712469030694542,0.3170875912860922,0.35886131052759973,0.40496412278620264,0.4540879445418804,0.5007877907959395,0.5517457186774921,0.6028873345262131,0.6506290951059388,0.698654954929294,0.7498163331664904,0.8000206127198981,0.8461596874183102,0.8966606117372424,0.9471108992279953,0.990248426882421,1.0,0.9618940873650124,0.9112020022698679,0.8600649258500901,0.8123930794361129,0.7643020940596943,0.7131289470588082,0.661897004106472,0.6106650611541364,0.5594331182018006,0.5082011752494644,0.4569692322971286,0.4057372893447928,0.3545053463924568,0.303273403440121,0.2521181712698748,0.20566731765225366,0.17652061632253435,0.14729938400708842,0.11041582281404927,0.09913644115529308,0.0891746501468722,0.08209960113282255,0.08977877923083866,0.10194124789708559,0.10497360190631211,0.1165655896048221,0.14110512158713595,0.1726259955098841,0.20517679346724704,0.2383326141308877,0.2680638320150379,0.26902772179132883,0.24296055863773303,0.20780373639453442,0.16979910000372556,0.13034057450681114,0.09152206794902606,0.056965207837432974,0.027688169319756373,0.007249468557026795,0.007086527239273721,0.03331284795505196,0.07316954406103626,0.11746845106343362,0.1627777644445083,0.21296238153052904,0.26418154335259825,0.3135593869890787,0.3534205642525261,0.39449912535964193,0.43500950184281995,0.48013913754749615,0.5304051701534163,0.5785944379340375,0.6261732621895888,0.677264920128082,0.7259038110905769,0.773069957893934,0.824137968177892,0.874421887767028,0.9193296020780215,0.9414764860020186,0.9102149733202567,0.8603825106331373,0.8118979583858597,0.7646026486381596,0.7135052572378915,0.662273314285555,0.611042325196953,0.560415509185985,0.5142303551077356,0.46419552611307835,0.41296782064289217,0.3617358776905566,0.3105065383608403,0.2602670286287343,0.21916341890889246,0.18415779944686417,0.14240052229509348,0.1113461054299898,0.11078026021661724,0.10220901877186295,0.09175365319102857,0.0979062368148067,0.1126191875837459,0.11840414036387603,0.13103934789109872,0.158824280867774,0.19287150224310956,0.22535366089832864,0.2538782342850472,0.2618001684510034,0.23772926818568485,0.20089893451252783,0.16409151019337576,0.12744517187167137,0.08826494594762813,0.05288499391592549,0.023858089581536124,0.006714079973348719,0.015875623848287113,0.0471716371628248,0.08791289227264332,0.13305308613809852,0.1791385102619396,0.22785060343270702,0.2745459930534975,0.3252417904482301,0.3716156962514028,0.4128186901985542,0.45445735190759273,0.496721103101071,0.5473864236149297,0.5973506041136578,0.6435679913689771,0.6942335856620017,0.7453042890331094,0.7924724250202573,0.841107531332626,0.8918117147759335,0.9283587179287287,0.912178845386505,0.8669611415093541,0.8159994097116599,0.7658215260830934,0.719683635235242,0.6691533087274313,0.6179224717507414,0.5666905287984054,0.515512684525389,0.46726799557446275,0.4197380029895086,0.36861697810807925,0.3173850490312291,0.2664152466760741,0.22616038811625527,0.19073382271148454,0.14568042879055,0.10667948708253183,0.09741194512574536,0.09021661751672538,0.07818081917939401,0.08112966094889051,0.093352361517693,0.10011709115634004,0.11573533507178779,0.14118792891852006,0.17160950842301204,0.20632594632011414,0.23188895892832662,0.2384192857257592,0.21311305774495892,0.17879875061841166,0.14186839132077989,0.10503175594293412,0.06970161734422087,0.035633326240447794,0.00745810958483295,0.0,0.016798433666766144,0.05270036980550108,0.09473289036664445,0.14040525062451592,0.18633857054450664,0.23622226753600306,0.2824811290874054,0.3322781873412397,0.3803883680741893,0.42803677408118723,0.4788194303435582,0.5252232220496778,0.5690763958739036,0.6103096428625421,0.6511591084378272,0.6976206437074988,0.7455135112068432,0.7966698068152938,0.8478717186392772,0.8965927903478661,0.9436369269086171,0.9864095187736817,0.9746044479595737,0.9300951444416603,0.8812871334181067,0.830080799375021,0.779023024298142,0.731948651623296,0.68320996975483,0.6320072241678578,0.5807752812155234,0.5295433382631869,0.4783113953108511,0.4271888133346229,0.3796332446186783,0.33141655004133175,0.2802394744118235,0.23041422500602415,0.19789762320683257,0.16162138568161932,0.12015713214258872,0.10687381973749632,0.10776122399727961,0.09377754055530052,0.08113845316847845,0.09532635931359557,0.10556138228861767,0.11036778236728928,0.12641619017507355,0.15445448302273945,0.18334941956608208,0.21675199403011725,0.24833464067903632,0.25570467562920696,0.2329209141011357,0.19548563015213083,0.15804946942955134,0.12061287959261047,0.08492612126232868,0.05077908049330082,0.020075335840271658,0.0169788472662582,0.022277995409714535,0.027505127344851665,0.010929681979812145,0.036004393456787076,0.05964914747946848,0.07187879024542232,0.10573892284484576,0.15104597372818263,0.19944097692320684,0.24604675900863282,0.2928760024183792,PM
0.621246286025336,0.5721375949744818,0.5255114838438697,0.48694934228998776,0.4494534168932196,0.40281540610718847,0.3615364528271048,0.3248576557520435,0.32885699949002034,0.3299246783875791,0.3196587657619372,0.31414736822471,0.3214948130495514,0.3168653332479425,0.29559244235692184,0.2757991741860488,0.2638132457691589,0.26941285900047296,0.2876013032461655,0.29926364211747414,0.30130409028678784,0.3131802438667053,0.33888075161504316,0.3715266944807809,0.40688132472426886,0.4391928802719438,0.4571309466287279,0.44356095156898556,0.4105388633140381,0.37061890916149687,0.32572042326733097,0.2825230403796639,0.23492711428014057,0.18803540556198506,0.1432158821302114,0.10261078634776588,0.0642037564502842,0.03511129247733513,0.03563100554363663,0.029299065731901885,0.0338723202082285,0.04514591375812804,0.07635921996256445,0.11429868481095817,0.15429206114267435,0.19680003408490587,0.24168090736432868,0.29166549859194424,0.3373892462983288,0.39024638994170613,0.4437249562873615,0.49035572860057264,0.541091736957569,0.5948739023074157,0.6486623558652749,0.699915531768823,0.7461677543975616,0.7995024070586214,0.8532991511438066,0.9063393889493105,0.9520646490357336,0.9952271449949674,0.9970536002616783,0.9538774001869421,0.9074535631369578,0.8653358164725722,0.8136305046403711,0.7651175212915495,0.7168083367657325,0.6724679823831958,0.6294496861232348,0.5803932935103622,0.5328839160110039,0.4837142270511421,0.4372711935422684,0.3933426196168184,0.35067930401012837,0.3241893311426318,0.3165949487467299,0.31057134990828494,0.30243322861451105,0.3042375386318512,0.31118463949187314,0.3114642727457748,0.3087486720960826,0.29981703478577626,0.29057248668029967,0.28169163873885217,0.2812483805517063,0.2956046778238801,0.31723943154778067,0.34582813747130836,0.3786250161024809,0.4159686727883385,0.4569387480363232,0.49036375137153376,0.49768194553022016,0.4725868646099096,0.43216240826052443,0.3891310779463102,0.3451210830960918,0.29309583669022343,0.24517114702757992,0.20009962902567824,0.15689592925096152,0.11206380592134946,0.0707622227108089,0.030527308211410586,0.0,0.0028861823828676414,0.008066369836081666,0.017057167961531894,0.03565259957152911,0.06999104339098361,0.1087837315006861,0.15108033632521511,0.1975596609182544,0.24667378247104566,0.30037475821928505,0.3498320564201558,0.3976025841166375,0.45124887715937145,0.5049683931784437,0.5523245172557627,0.5857090658042181,0.6347783649459489,0.6885524809479557,0.7413435940892805,0.7869130009155096,0.839384407396432,0.8918317035131098,0.9321966471294991,0.9345238661582558,0.9019042966604771,0.857534416575191,0.8082721805078741,0.7547044374341034,0.7074771762541912,0.6642601612174195,0.6191527406777153,0.5709429694215595,0.5206068072652923,0.4737176239512122,0.4223000996678228,0.37869638106584325,0.33924431810179545,0.29665776148350975,0.27978681936077576,0.2752878095606277,0.27960875733442125,0.2799651775543004,0.289334314996214,0.30951489821114686,0.33044812258633827,0.36326638026906677,0.400744191799151,0.4384096106837032,0.4758733540984714,0.5075258644262151,0.5175547725402327,0.4886476532510027,0.4493546763867333,0.4064908382097576,0.36150598621192187,0.31665357620661894,0.2731497897770936,0.22890280061853008,0.1850957287706243,0.145289410251642,0.10528879358822452,0.06306644266247718,0.04069498420766893,0.04953809152469768,0.0575635541901538,0.059765137810405156,0.07850869980600028,0.11031001980398636,0.14893371722379656,0.1924381136658444,0.23731191442073585,0.2881307455277624,0.3419149479809296,0.3957122108607767,0.44950925874463765,0.502696040470247,0.5486968576862914,0.6003474167524598,0.654137861646185,0.7079345356239823,0.7608282295093813,0.8064698170873128,0.8587683855302801,0.9125236595118982,0.9619877853427639,1.0,0.9941852554770634,0.9519839664392342,0.9059476962471162,0.8609589893297662,0.8160809290399706,0.7648798931796268,0.7156922870024736,0.6726955467138307,0.631400556750858,0.5813079088576254,0.5278656217697084,0.48119032373629156,0.4343972708732522,0.39341323041909626,0.35614036683009953,0.3433630301637203,0.3404462559818753,0.3283464831745797,0.3263646211993658,0.3385868168976578,0.3357794304208488,0.31546176070152043,0.30588442580850406,0.3009827342389968,0.3004610489695019,0.29304826881147594,0.2980553355202875,0.31977030574580834,0.3526667521914595,0.39161388390149443,0.4373422422248854,0.4799010257894407,0.5148556148033931,0.5315920815980619,0.5158831992014363,0.4769035325963882,0.43199530441488254,0.38700751400587907,0.3408979320685934,0.28899763869614037,0.24407589024237497,0.199951710121544,0.15690320787726497,0.11495305605161787,0.07631223885526173,0.06181630202765698,0.03608890479962068,0.03541481619685505,0.04517092886027152,0.06881455223322419,0.049404636277097014,0.050840278779741954,0.09103513820704467,0.13099701306380296,0.15020293388907668,0.17590215860011593,0.15755325926854669,0.1450656984871972,0.18276162681656838,0.23050439355645347,PM
0.2054726409422778,0.19773811406677644,0.17523160059788156,0.1542981461347288,0.13089551116033826,0.12152720026749408,0.14231106614943712,0.16736708903100173,0.1848051044313601,0.20219727979967916,0.21495829734968397,0.2230168584807517,0.21757050901774977,0.20992713599794133,0.20223604378712978,0.2082556285622561,0.20827793049748777,0.19251972339836487,0.16790322753843934,0.13896982552297676,0.11055625578784056,0.08211625064382089,0.056546272322880675,0.037294262343934514,0.030276301350645518,0.04612037449749895,0.06735799697265432,0.08893119434934404,0.10683693318038667,0.13035135055222002,0.14670775229499822,0.16437901135604482,0.18918855651152588,0.21996695333890504,0.25374118438287163,0.28999194161711506,0.32194143273132436,0.3599369498302636,0.4079318261776397,0.45624584541632807,0.4975544732541546,0.5463957776649537,0.5936674621146039,0.635524276587109,0.6848713002297533,0.7339234094482481,0.7752686871352403,0.8233443678185037,0.8729747139530111,0.9161820033519059,0.9616542477966532,1.0,0.9940479423598543,0.9532957266939377,0.9084605982965681,0.8595375710642155,0.8181594403777637,0.7709499910755149,0.729633298535417,0.6837284502248324,0.6419756118862683,0.5930544556101025,0.5510512716880691,0.5040053017800799,0.45449665800324457,0.411967183345185,0.36552606608298,0.31637591987926306,0.275272304583168,0.2471088366294294,0.23690281571338234,0.21472866752578867,0.19753437682554376,0.17541398906394368,0.18052245415438506,0.20182378265101142,0.21823428011528812,0.22923249674540602,0.23200458033004678,0.22528030875486116,0.21929391236880313,0.20568359590912522,0.21424572885689996,0.21412471464683613,0.21843671029092238,0.2174399710811692,0.20292991359573676,0.18637633340194149,0.16049855207777708,0.13589890453824127,0.10687855199916219,0.08215230362820414,0.059659659532936615,0.05089181694217704,0.06032661593319255,0.07355425291424988,0.08445720185853722,0.09533462363020351,0.11403302621317613,0.13158737816578858,0.1479743011945025,0.17402095913623583,0.2149758372612911,0.25869830030102214,0.29990572790056813,0.34811965648939025,0.38978789604096287,0.43735235140646767,0.4871423623543989,0.536740531870171,0.5795332570036158,0.6256312333849574,0.6753779385349734,0.7210333307555308,0.7642590842124934,0.8138609116933195,0.8601834606247798,0.9026769892671007,0.9392764299239555,0.9237300842651877,0.8828651415329163,0.8367233221453678,0.7883385003302923,0.7470634987106584,0.6998411787581893,0.6585451667398718,0.6131120546221398,0.5705075394234971,0.5209872167667324,0.4761427276480097,0.4321506657367129,0.3826176219088384,0.33929304573538954,0.2939440832164888,0.251278693835441,0.21884474707889834,0.20225004141979652,0.17984262528339445,0.15310580794399065,0.13004582423313948,0.11611173322483093,0.12981095484673855,0.14102042405363147,0.15496767141577683,0.1680972974281818,0.1639769836172984,0.1582686827975106,0.16466605375759302,0.167948848545437,0.15949413422413938,0.15523321184612993,0.13597314507238112,0.11760204792999751,0.08761893924062969,0.06448650155258706,0.03627976608402217,0.009672999462511989,0.0,0.012683093595812434,0.038108402396635155,0.04841407430129596,0.06334195611880133,0.07722945658448066,0.09402433405769295,0.11464546191198965,0.14082002581312425,0.1629499587040124,0.19363863641294232,0.22473634921400465,0.263663238855937,0.30783392371841756,0.34941048046567547,0.3985103167268611,0.4426841165299362,0.48733935647801596,0.537059863758425,0.5840530114153104,0.6261016865046285,0.6755370236529816,0.7244210122563155,0.7657228191564709,0.8140098797678297,0.863804094547548,0.9131554906093551,0.9503024141454519,0.956275781214774,0.9201898223023108,0.8791531221966604,0.8305266935397659,0.7849213816420781,0.7417036763730116,0.6965101344982929,0.6537075404394783,0.6123939100698506,0.5644781804330266,0.5175261002226246,0.47542534341124876,0.4260381808933187,0.3805302488412807,0.3372223107185408,0.2922307444330128,0.260707014120374,0.24862529613968665,0.23115455182777245,0.209967790236671,0.19525235879702563,0.20911360246622723,0.23383540092491817,0.2511276240402298,0.2666810924762324,0.276339325449251,0.27807987248321875,0.2741045656470793,0.2673669895672326,0.2671909231720757,0.2663705472860658,0.2503162604996929,0.22740177284204943,0.19821092893381986,0.17031518180390637,0.1424420776901596,0.11467976833743543,0.08286932274185,0.05793259149671304,0.05384892427661492,0.06598484441506858,0.08585436434204108,0.10499741270009011,0.11570700959523483,0.1332586356030876,0.14582164024958866,0.1697174151302292,0.19491387656362247,0.22772281472909373,0.2673957447457114,0.3074423296810791,0.3528695190157267,0.3941650069411877,0.44240065081327984,0.4921550140499886,0.5372974961093071,0.5809844222432039,0.6306651685737283,0.6802215536635541,0.7227425113978669,0.7690756141997119,0.8133720390920649,0.8578605286409808,0.9013725916371209,0.9029232527534097,0.8655383528735796,0.8167428460321431,0.7753272696278559,0.7273026634885018,0.6810744254860759,PM
0.7822438834508451,0.7873160762438031,0.7949234417540524,0.8010738664991198,0.8015518249156063,0.7977936130398374,0.799196387614069,0.8028242095990606,0.8071389239152084,0.8002393488118295,0.7981344262883424,0.8116935944317986,0.8311858334980556,0.8332447038965766,0.8283953492834762,0.8318381253402091,0.8223325543720043,0.8014077888161623,0.7762032208914921,0.7464566255844244,0.7198773794098406,0.6917118736175347,0.6612575667804174,0.6347044465629574,0.6065094898374962,0.5759424091737674,0.5453607795795817,0.5149442571146848,0.48880947064398717,0.4601482074769008,0.42957647223179696,0.39899484263761154,0.3684132130434259,0.33783158344924047,0.3073730917845794,0.2809282931175088,0.2526155326594265,0.2220472761014557,0.1914656465072701,0.16088401691308452,0.13030238731889887,0.09981236551133649,0.07332310860491997,0.05884865820500368,0.07453458857522954,0.10331204999587551,0.12879474535347568,0.15880627170098782,0.18938753241571893,0.21996916200990468,0.25055079160409,0.28113242119827564,0.3117140507924613,0.3422956803866467,0.37287730998083235,0.40345893957501777,0.4340405691692034,0.46462219876338906,0.4952038283575747,0.5257854579517599,0.5563670875459455,0.5869487171401312,0.6175303467343168,0.6481119763285025,0.6786936059226877,0.7092752355168733,0.7398500574843628,0.7688205554495794,0.7947236106970915,0.825059542864658,0.8556411724588436,0.8862228020530293,0.9168044316472149,0.9473856949043579,0.9773715147685839,0.9999999999999999,0.99153797194816,0.9615689379084523,0.9351286977681837,0.9070004409608373,0.8809788064645038,0.8552558333159771,0.8333841909250553,0.8143122787747737,0.7984711594560553,0.7878813498950651,0.7823439305106349,0.7820221527300412,0.7819622940065033,0.7774843643533472,0.7742228368780099,0.7834494485822604,0.7901110218543274,0.8021655852018147,0.8149296020684559,0.8322770102711677,0.8510844144458557,0.8720307325709581,0.8747318671574892,0.8566179445870309,0.8380039995794429,0.8196727725569762,0.8023431183225401,0.7952405194890529,0.7914217350134835,0.7863029342217575,0.7769573284157923,0.7750002080207558,0.7704855241853726,0.7756103504405688,0.7845232828900194,0.7923291018728472,0.7971459512014084,0.8015060233167307,0.801852404308015,0.80739958375031,0.815055532411879,0.8206834884536712,0.8247131059854035,0.8280826813277086,0.8325208743578741,0.8273050649255215,0.8215049182432593,0.8212747203873724,0.8203746783587745,0.8109001606832938,0.8014775043729704,0.7954938277635234,0.7905906877593064,0.7828522454920935,0.7781369380477642,0.7679955820594352,0.7579176400795798,0.7583114078925938,0.7685496700053801,0.771733558406486,0.7689522205392897,0.7655558298588258,0.7491861838102497,0.7236927938277186,0.6964718890378231,0.667081360196773,0.6414780658284677,0.6113217524090515,0.5812044731143741,0.5556798751922308,0.5261172950190999,0.49553735284140354,0.46495572324721757,0.4344483820653855,0.40750710962569714,0.3797211651155422,0.34917141589943335,0.31858978630524726,0.28800815671106206,0.25742652711687675,0.22684489752269077,0.1962632679285055,0.16568163833431954,0.13510000874013428,0.10451837914594903,0.07393674955176299,0.04336478075033623,0.015003508459982107,0.0,0.013470267720423257,0.04278015715638339,0.07118427353448853,0.09754331764083468,0.12799337166162017,0.15857500125580543,0.18915663084999146,0.21973826044417677,0.25031989003836275,0.28090151963254795,0.31148297381278,0.34146426623587756,0.3630316141714698,0.3860770327869625,0.4142020286939182,0.4447646641107885,0.4753462937049745,0.5059279232991599,0.5365095528933458,0.5670911824875311,0.5976728120817163,0.6282544416759023,0.6588360712700876,0.6894072675636641,0.7180145373532988,0.7441897848312194,0.7746203786178726,0.8052020082120578,0.8357836378062439,0.8663652674004291,0.8969458999486749,0.9267561614396919,0.9440779865423049,0.9246179310301127,0.894294990720392,0.8682031296781317,0.8424640955090418,0.8192098181996913,0.7925362353081223,0.7728924436159302,0.7548469825293563,0.7380221901980962,0.7255368313385123,0.7171990626623658,0.7206721101807668,0.7137916193198682,0.7058880858689963,0.7119736340021702,0.712169959784492,0.7110394338396188,0.7202905484460885,0.7307431969685109,0.7457326511881309,0.7615095100643071,0.7809543060827487,0.8000062739911552,0.7978959975835528,0.7769595689918406,0.7606552622232147,0.7501675721869289,0.7495004431135831,0.7557821310602676,0.7624640907274111,0.7673332454829859,0.7693525502186692,0.7778509600205034,0.7927899075074557,0.8032481647742596,0.8096352307028648,0.8174675783882804,0.8277903408549742,0.8355720501387299,0.8444600139018484,0.8471491784588322,0.8422385142509278,0.8329909104839309,0.8278827050716183,0.8294853971796786,0.8347168494613514,0.8400138765786155,0.8396177889686637,0.8347162912352833,0.8335547934361177,0.8257996757183249,0.81461190540438,0.809641382984286,0.8205393486915208,0.831564627822985,0.8343382156469367,0.8343597448175878,PM
0.44663183220854097,0.4492551133362239,0.42059269414338707,0.3816850883543017,0.3390012320386553,0.297360752269235,0.2581807356282382,0.22286748057133554,0.20364678165405037,0.1980114263417636,0.17692574449068266,0.1411133929596058,0.13181605375147143,0.1675779870342855,0.21215950125214467,0.2584531979006417,0.30897438528279886,0.35623614964001105,0.40927787678553096,0.45956768982861207,0.5079932662049835,0.5610917244414368,0.6086835697819413,0.6597902152263919,0.7080768473858952,0.7561697625183379,0.7805654809152265,0.7454291850205805,0.6985204671113379,0.645517912890234,0.5918836097349505,0.5382891969832255,0.4880422711655874,0.43956503639933464,0.38616781649398835,0.3385668934023418,0.2958336529785386,0.24322150474851734,0.19590950333477908,0.1441871675963562,0.09056024092555992,0.037042276533566953,0.0,0.03416614125647777,0.08762731488759634,0.1387898903927569,0.18649179100928248,0.23932531892159625,0.2865036891979722,0.3297123743063093,0.3500260439237417,0.3509022619381956,0.3410305092333281,0.3302217135611878,0.333640266161195,0.3277434779089905,0.304722581470096,0.2776483991532388,0.24704387451615029,0.2567651122742136,0.2779063992403876,0.2824768400680826,0.31012537317931055,0.3444611054872684,0.3820573838941561,0.4077204138813826,0.3987035182422347,0.3647712750466585,0.325083937449826,0.2852511192223939,0.25483235312234753,0.2738372807233074,0.30867903346710013,0.33100954121400816,0.3417279168466385,0.37902189759415994,0.39542544413814373,0.41158642160328873,0.4577932252649626,0.5113628357720728,0.5647720963510103,0.6129119435450188,0.6634322701900612,0.7123878228421772,0.7620803364661253,0.8141526150467071,0.8612531785289625,0.9140963761567165,0.9634225869489164,1.0000000000000002,0.9850360461516601,0.9363468386002369,0.8829556598844104,0.8347147176608074,0.784975888421749,0.7429941374594773,0.6944391965908696,0.6408485802530353,0.587598354640771,0.5400861518794067,0.48868938790762706,0.4350655395053282,0.3814308064861318,0.3277960734669352,0.27429371808477465,0.2254885226756278,0.17559733873428707,0.12202354847882857,0.07456105206699015,0.08999765786021108,0.14264988446414573,0.19628280108856533,0.24883995908771128,0.29212425598311165,0.3247885843428142,0.3191129178637624,0.29021688764926945,0.3056081795349137,0.32874981946205795,0.31540918328609235,0.28910249362668083,0.254966276454081,0.21534037588138966,0.18905714656151473,0.1835388235227564,0.20091300143253177,0.22217286960100524,0.2373300865462702,0.254831199176611,0.27832350514742,0.3041588691294168,0.33582464902338227,0.3753003420354242,0.41279595152770043,0.4374931192595979,0.43574034931129835,0.39992537913857884,0.35925655937242373,0.3174738591989601,0.2744286919943677,0.22881150006148032,0.188823912204108,0.15908384767163986,0.1618460196418543,0.18039649887407716,0.1996506377915428,0.22298856046182158,0.25518930114720173,0.2954410039636701,0.343257735717202,0.39672241527578334,0.44752766588622084,0.49552215993947746,0.548639006578548,0.5966014770736983,0.6474149230358726,0.6986407265252774,0.7462743089180688,0.799116278252507,0.8465462442887659,0.8929572856277554,0.9008082202828518,0.8582778692939923,0.8087327867598617,0.7597552598701474,0.7062265424839413,0.6525918094647445,0.5990003129763679,0.5488360147621789,0.5002852468071042,0.44680886773360196,0.39317413471440665,0.33954129049075976,0.28699855749435055,0.24294719568063616,0.20392897943443566,0.18316741301987216,0.22512158104495716,0.27573656479946873,0.30358461339457676,0.30203791709893135,0.29749241965655693,0.28311760133302055,0.26804501683930937,0.25800515499055665,0.2652609139665265,0.2882545070534437,0.31271035591753926,0.33553972910899765,0.35408281703463795,0.3806791574955839,0.41742972684480417,0.45091868956910686,0.47090126604884075,0.45684414890014025,0.4162735681046368,0.3753139355601427,0.3342363619244446,0.293876399346231,0.25709951684485843,0.2309958255654041,0.2363709204319666,0.25144411775755726,0.268719064908586,0.29541159573713394,0.3329057211308597,0.3788710845861918,0.42556892961006554,0.47607326209744194,0.5233707591766079,0.5743479305997015,0.6217877295861851,0.6749611857992341,0.7248125333021662,0.7736548324228565,0.8261592380758238,0.8724900939662288,0.9047965230021553,0.8826537178366445,0.8361315941633447,0.7858535817418237,0.7322541530015785,0.678619419982383,0.6249846869631854,0.5713499539439901,0.5177152209247926,0.4640804879055971,0.4104459439957582,0.3573097538724954,0.3099825351730543,0.2582894599834642,0.2046635598001587,0.15210267294785074,0.13071602785917724,0.17376340096964027,0.2224778463585495,0.2653275794386065,0.28624724999536055,0.28580747537636,0.289925210798327,0.2888884319189322,0.2860455713994403,0.278017132956901,0.29058909297696567,0.3031436625432615,0.319106973886643,0.33738458872235233,0.35713385202622394,0.37242814734109264,0.39646070201705896,0.4164007193030519,0.43458596253675297,0.42126974811675355,0.3906010799041941,0.3852901475584527,PM
1.0,0.9862644778983198,0.9716576574077327,0.9570508369171449,0.9424440164265577,0.9278371959359701,0.9132303754453828,0.8986236622525483,0.884741976804287,0.8749831555440102,0.8606780045984279,0.8460712559973349,0.8314644355067473,0.8168576150161602,0.8022507945255728,0.7876439740349852,0.7730371535443981,0.7584303330538107,0.7438235125632231,0.7292166920726355,0.7146423050708213,0.7037613909113736,0.6912611974855896,0.6766643931151752,0.6620575726245879,0.6474507521340005,0.6328439316434127,0.6182371111528255,0.6036302906622384,0.5890234701716508,0.5744166496810634,0.5598098291904761,0.5452242994079906,0.5338969591511864,0.5218514362456212,0.5072575302330156,0.4926507097424282,0.4780438892518408,0.46343706876125323,0.4488302482706661,0.4342234277800785,0.41966336721055564,0.40916858611826945,0.39627165965307176,0.3816711288226182,0.36706430833203063,0.35245748784144326,0.3378918558815849,0.3272666784516376,0.3145042705355321,0.29990518888398277,0.2852983683933954,0.2706942673097914,0.2586228835573934,0.2473351448521932,0.232746069435935,0.21813924894534764,0.2040787120009645,0.19437286337265003,0.18022371286503036,0.1692472393339367,0.15687266392528865,0.14583297081768176,0.13566245912912311,0.12568904039531337,0.1179065084176657,0.10818799094757925,0.10035769789317928,0.09068696617832817,0.08280888736869263,0.0731859414090772,0.0656070653699593,0.060814363221178946,0.051810569562047326,0.038289579462463585,0.030177488564995136,0.02298625480483263,0.01570911292475974,0.008339612085466186,0.005096988776239653,0.00036652029698391875,0.0,0.006221412701555629,0.01397201720024055,0.026267883437998796,0.03591091800035762,0.04555791716260282,0.05749177888723256,0.06431483420762563,0.07119978121711246,0.08054326443153292,0.09259865245447052,0.10317528722332991,0.11324192429816293,0.12556296236546516,0.13519316441632934,0.14372820721431934,0.15114435654262903,0.15837628074265175,0.1658547222516894,0.17601461450814926,0.1857347235856026,0.19051224627739616,0.19789791401536294,0.20715433711217068,0.21120168704894993,0.21611865767512328,0.2209711645859409,0.225404782055719,0.22849535203902283,0.22398521213497502,0.2176223468590841,0.21512249375242742,0.20802817771963567,0.20508249385060806,0.20650230544165515,0.21088137440444754,0.21116283476818354,0.21583708632598786,0.21681421317891303,0.2166463980425405,0.21125688979805235,0.20138053091515928,0.19590664637279387,0.18778367654482175,0.1874491330990522,0.18946907256299517,0.19345915081089415,0.19838196099563632,0.2055693220476852,0.21115561012974493,0.21724579340966998,0.22254987179355112,0.22266049634765595,0.21901088725657958,0.21229755652547,0.21094187104526485,0.21091424459810115,0.20747470700671045,0.20303940193727044,0.19926487972882123,0.19930667637683563,0.20366095542872575,0.2101242680900407,0.21093934462496022,0.21093951487072848,0.21093897552068985,0.20920759264145716,0.20542263121569937,0.21003938098209007,0.2109515089310079,0.21340478196277357,0.21679055412449866,0.21680398020740543,0.21323922621990032,0.20537472588948968,0.20228676938936974,0.1992057757478557,0.19918954886094997,0.1991908008991785,0.2003953432505351,0.20108828063621587,0.20281843613675132,0.20983936062882824,0.21093914433582128,0.21093951487072848,0.21038882501830902,0.20443109559791595,0.19938893900007526,0.19918956280965783,0.19918954886094997,0.19918954886094997,0.19918954886094997,0.19918954886094997,0.19918954886094997,0.19918954886094997,0.19918954886094997,0.1991889551467163,0.19725059005605128,0.1934007068101189,0.19145186853083318,0.18753515153505418,0.18743962755856858,0.1876932594726437,0.19243460939332457,0.19251589707416283,0.1877048210875446,0.1836378411138565,0.1702705259341426,0.16038186698798818,0.1469034909473541,0.13775416090821213,0.13463526111679525,0.13953858396210828,0.14898415222131767,0.16256913763451908,0.17717564195439428,0.19178246244498176,0.20638928293556935,0.2209961034261565,0.23560292391674398,0.25020974440733146,0.2648165648979188,0.279423385388506,0.29403020587909356,0.30863702636968116,0.3232438468602683,0.3378434115714526,0.350650659003922,0.36123237098798233,0.3757961458177288,0.3904029663083164,0.405009786798904,0.41961660728949135,0.43422342778007894,0.44883024827066564,0.46343706876125323,0.4780438892518406,0.4926507097424282,0.5072575302330156,0.5218643507236032,0.5364711329446588,0.5508356988548122,0.5607262320603761,0.5744168914586665,0.5890234701716506,0.6036302906622382,0.6182371111528255,0.6328439316434129,0.6474507521340005,0.6620575726245879,0.6766643931151757,0.6912712136057628,0.7058780340963495,0.7204847576613005,0.73472221936454,0.7444064013172653,0.7584303402069943,0.7730371535443981,0.7876439740349856,0.802250794525573,0.8168576150161606,0.8314644355067473,0.8460712559973349,0.8606780764879223,0.8752848969785099,0.8898917174690972,0.9044985379596844,0.9190992068071768,0.9320089445627648,0.9424913069562255,0.9570508369171449,0.9716576574077322,0.9862644778983198,1.0,PM
0.7034253833957753,0.6978699447510559,0.6946263848014866,0.6869468837512092,0.6801688472639402,0.6576557822529343,0.638680367237491,0.6292812081217773,0.6432641074522405,0.6683358201745342,0.6774658638224298,0.6809680485166487,0.6930352049611965,0.6988898323340138,0.7011785007861042,0.6905354994520196,0.662019687707037,0.6263596254531434,0.5940762158390742,0.5597247367795213,0.523538203402401,0.4873498151762458,0.4528663448695552,0.4206759124437343,0.3846969521041788,0.34849786182272263,0.3122987251384663,0.27609958845420984,0.23990045176995367,0.20387382385352099,0.17154550444334982,0.1372446731081456,0.10105924687453166,0.06486011019027521,0.028775799071430297,0.0,0.0049319027937493876,0.03706241020170842,0.06902519395472889,0.10490253226334711,0.13880165307624154,0.16624781538204342,0.19592597509510368,0.22429253139834743,0.2563287741030981,0.2923308142577958,0.328529950942052,0.36472908762630823,0.400928224310565,0.43712736099482125,0.47332610827868943,0.5090829570072959,0.5408796050641562,0.5759720643328006,0.6121677025744996,0.6483668392587556,0.6845659759430123,0.7207651126272685,0.7569642493115247,0.793163385995781,0.8293625226800376,0.8655396481949567,0.8995900059095812,0.9321414503573711,0.9668786834209524,0.9705039219220677,0.9367895704334437,0.9005945786248786,0.8652045450861903,0.8339731100892966,0.8044440243817856,0.7789637504635769,0.7625093623069075,0.7533260073856103,0.7514937869866007,0.7494824322224047,0.7497520823486394,0.7575576717258039,0.7742521467260945,0.7941912533424733,0.8121110122645454,0.8073675753451828,0.7839557953079692,0.7608741689942673,0.7402521952964383,0.7270900845644606,0.7304686898853763,0.7362819968231806,0.7428488125795116,0.7525771881858905,0.7599789983836991,0.7578743437816922,0.749273977785081,0.7436469696717605,0.7410737406678318,0.7374200585907802,0.7326868083930413,0.7211295237515871,0.7215348827554262,0.725851781557705,0.7354791852841516,0.7441100630946624,0.7444576194581645,0.7427681962264732,0.7271059422468469,0.6923355096371113,0.659196581807971,0.6257838567868266,0.5896308207033334,0.5534316840190776,0.5172352794133641,0.48205546359043766,0.45030444786911944,0.41458999762751475,0.3783913424393987,0.3421922057551428,0.30599306907088614,0.26979393238663024,0.23359479570237363,0.197395659018117,0.16119652233386106,0.1249973950874621,0.08901924005048806,0.05727823188667003,0.03984663007212136,0.06080670408727895,0.09228675062564062,0.12815037412697466,0.1643493503676503,0.20054848705190692,0.23671399156065326,0.2704136862064654,0.3032789342985655,0.33938969194732854,0.3755888286315851,0.4117879653158418,0.44798710200009767,0.48418623868435423,0.520317855717443,0.5534809045188986,0.5868778085120099,0.6230274435797758,0.6592265802640325,0.6954257169482891,0.7316248536325449,0.7678239903168016,0.8040223823741961,0.839601958764062,0.8712680136132807,0.90666666284364,0.94286433189648,0.9788978070856722,1.0,0.973534992006506,0.9393954049853988,0.9070294760551076,0.8739897895554005,0.842051432307872,0.8110633625393753,0.7850763128824825,0.7702419438137083,0.7624276840076176,0.7561236544676382,0.75170726420497,0.7494000983135773,0.7543829918991642,0.7709129739792069,0.7891700321284854,0.7942589576799928,0.7743453272928169,0.7516957810568354,0.731515191673227,0.7207246439636246,0.7207076645737722,0.7271191518543425,0.7355104299267523,0.7451092362557796,0.7522323060792695,0.7545456756122066,0.7497570849425375,0.744680230929524,0.7425912128239349,0.7379942336359582,0.7332238895658392,0.722578447780692,0.7246412464692815,0.726254393673359,0.7347785226090802,0.7419786302749112,0.7415229119750624,0.7364612871735328,0.716883352426471,0.6817530258950497,0.6498406939195134,0.6149644475088896,0.578771079698057,0.5425736138657191,0.5072333145486196,0.4755649324658405,0.4399292222715258,0.4037307381183782,0.3675316014341223,0.33133335175128004,0.2957679884830294,0.2640693391084246,0.228688609639635,0.19249125985444326,0.15629212317018737,0.12009298648593153,0.08399992123877253,0.05748546739824284,0.07166183581892316,0.102741525706186,0.13854311129238245,0.17474200573829168,0.21093930241097247,0.24631009053260905,0.2780103696334831,0.3135840686036268,0.3497823473179706,0.3859814840022265,0.4221806206864824,0.45837643020889846,0.4934626143549982,0.5252345312700435,0.5610220866959661,0.5972209622661613,0.6334200989504173,0.6696192356346731,0.7058183723189304,0.7420175090031864,0.778206997811101,0.8127897919987594,0.8448996222832874,0.8808586769336655,0.916392603831097,0.9285130677180526,0.8987904476219186,0.8667314598577043,0.8348636998362728,0.8060219780358331,0.7802522703010653,0.7674397792760379,0.7619938958450425,0.7604724279491653,0.7546091847744949,0.7502683846157221,0.7602172016292326,0.7761146720350307,0.7926773755203054,0.7932930595896428,0.7712082655069827,0.7506535568355852,0.7367044433363343,0.7316301715037117,PM
0.0986467850780135,0.09024455573881252,0.07814118346983001,0.08517365496852136,0.09553023869679844,0.10358066846369995,0.1098190779346293,0.11027080259942212,0.1289328089483297,0.14828829213944372,0.15445873199604487,0.16218132486138126,0.17139035272528091,0.1792313602378497,0.19066112861854934,0.1970793973557814,0.18799859778787886,0.16513869208656162,0.1446547865695882,0.12073427085709798,0.10359405915507058,0.11276927492195865,0.134100981812592,0.1538629265056366,0.1705476631352747,0.1901434139380569,0.2086680598403603,0.2119024072262099,0.23030453697213038,0.24901590861647982,0.27044947145042664,0.29686002197993644,0.3280949861161735,0.36210075630464633,0.40205136873587577,0.4400404716882551,0.4741709630211093,0.5139582709366772,0.5487621821301945,0.5859499750107002,0.6261649644666958,0.6643311200596358,0.6983113764540352,0.7382267316594098,0.7775763888648146,0.8110350464384708,0.8502850022754487,0.8902314536574742,0.9242910061438145,0.9552417812015457,0.9818452144247329,1.0,0.9796900702797746,0.9466429077170813,0.9078373168952969,0.8676014821813558,0.8273668465009507,0.7888627516632498,0.7550790995871763,0.7153945981563381,0.6800208982992633,0.6434545924608945,0.6032502299495468,0.5630238454303409,0.5252476120878167,0.490953466936632,0.4518642259796215,0.42920574308532133,0.4096002937115959,0.3791178359832963,0.3698291117403756,0.3842468785982658,0.3805966140347057,0.3850092854922229,0.3947661585474256,0.3968847379220899,0.4116566478996393,0.43365464364627426,0.4551891107603716,0.4700505348831847,0.4879315748967257,0.5072005743799783,0.5252016715420955,0.5302710540281284,0.535145443221622,0.5390703185057935,0.5225399009160436,0.5106968972920745,0.5074573969633496,0.504811970829818,0.5069409860518019,0.49727827071572595,0.47727438387766297,0.4463449537467763,0.4200296736906328,0.3936548018441641,0.3626120666618846,0.3328249137294743,0.311275885007551,0.28649271866540893,0.2798867987278726,0.28582893567936796,0.29223220288682183,0.2845968480507064,0.26338919122602644,0.2505673126530459,0.26033683401553964,0.2886767404167767,0.3227752178621439,0.35635852018134595,0.3943138187590354,0.42783667624656085,0.46674725836928355,0.5069835889633971,0.5472220262009941,0.5874604634385912,0.6275255445042023,0.6621486511356658,0.6995325908368446,0.7397168795997482,0.7760708904129747,0.8116512842164849,0.8504854935936939,0.8840388646592596,0.9178535120892253,0.9187175619577332,0.8853990238312024,0.8472684964712984,0.8132699195393527,0.7733722304224255,0.7331365223227275,0.6944974391714096,0.6607997570376851,0.6210939098385648,0.5838081560937154,0.549094619044727,0.5091131836078497,0.4773351222410056,0.4547539798623277,0.42829036809385435,0.3913504633957592,0.3521131230071408,0.3186544654334844,0.27952686169936847,0.25059693608231903,0.2293127692171819,0.1958122850716586,0.1684024328129925,0.16214773739757926,0.14767242001670722,0.1283317639689996,0.11566829368690201,0.10270984722558207,0.0944569489651379,0.10459384945329187,0.10673953954489224,0.09768286794855863,0.10168239811931934,0.11002591971556397,0.11155280321239269,0.12338724444126781,0.1261782401285907,0.12416260383473787,0.1282531675597396,0.13302238211085204,0.13660481014727743,0.12675953265866347,0.0982862497059298,0.0666568054411163,0.038225709001201924,0.01354931317598651,0.0,0.008403648526471796,0.021344418193516512,0.03619359376696174,0.05039205758393628,0.06665972004896914,0.07670696847462599,0.08848391271286404,0.10990245226989481,0.13653075827221461,0.16960173330169992,0.20538535639664923,0.24088524750334472,0.2749598930107606,0.3121701923264024,0.339907800295812,0.36858122191455833,0.4076625039090882,0.4478869958842513,0.48543714585778797,0.5199432245367777,0.5599557088711202,0.6001941461087172,0.6404325833463143,0.6806700639429666,0.7196924626075625,0.7532345256616144,0.7927269224969089,0.8317984121883266,0.863000814138867,0.8758391696819343,0.8552454853588616,0.8176787288840299,0.7774627287780125,0.7400787890768339,0.7054556824453706,0.6653906013797595,0.625336719387346,0.5906052883006749,0.5533292439317139,0.5157679936705708,0.48132574787415927,0.4412797374054269,0.40230128053985337,0.36878895522589983,0.3292209849774643,0.28912609923795696,0.25414971045946433,0.22185514515913463,0.19983616618034605,0.1697971212065068,0.14271015343644855,0.14199764864566,0.14007722572637094,0.12253217455792775,0.11535431746422908,0.10436798651047385,0.10700815405253206,0.12346206206207277,0.1281764118908817,0.1265489994293505,0.12764055880184677,0.1345602097836529,0.14403707929271614,0.1547272904809487,0.15833980998310881,0.16103496342244683,0.16440834827343642,0.17597282227531963,0.17283049477210155,0.16636052537537482,0.1622202380613489,0.15420993764690438,0.15421697885320462,0.13084051451548628,0.10230420617161662,0.07782039350519043,0.06470859015955632,0.0752975165775458,0.09879451880070311,0.1273284906541834,0.1484116070841135,0.13523423321471983,0.13798498218228294,PM
0.9999999999999996,0.9878175909550564,0.9748090833741507,0.96198179552042,0.9535695740508157,0.9416848125077721,0.928677489764284,0.9156689821833783,0.9026604746024722,0.8896519670215666,0.8766434594406609,0.863634951859755,0.8506264442788494,0.8376179366979437,0.8246094291170376,0.811600921536132,0.7986032432464409,0.7898143882102886,0.7784755579181459,0.7654693279262652,0.7524608203453595,0.7394523127644539,0.726443805183548,0.7134352976026421,0.7004267900217365,0.6874182824408306,0.6744097748599249,0.661401267279019,0.6483927596981134,0.6353842521172077,0.6223757445363021,0.6093672369553962,0.5963587293744905,0.5833502217935846,0.5703417142126788,0.5573332066317731,0.5443246990508672,0.5313161914699616,0.5183120794517029,0.5079438886273984,0.4981395520246912,0.4851845978600948,0.47217609027918894,0.4591675826982833,0.4461590751173776,0.43315056753647174,0.42014205995556586,0.4071335523746602,0.39412993148071984,0.3838914881767974,0.3739651117096796,0.36100195876479346,0.3479934511838876,0.3349849436029817,0.32197643602207604,0.30896792844117016,0.2959594208602645,0.28295091327935884,0.2699424056984532,0.2574463192778549,0.24936055444555016,0.23681931966949188,0.22381081208858622,0.21080230450768045,0.1977937969267748,0.18479602041221976,0.17599497092671768,0.16466840875257238,0.15166220331690794,0.13919707030127537,0.1311418154350732,0.11861509543823845,0.11009914008388522,0.09842293654680345,0.08597488252674168,0.07793488264359094,0.06652810407143883,0.06446097594512068,0.0597923375476207,0.058226432990120536,0.04939630617143298,0.04269627121516473,0.041099528482527625,0.03854131139449357,0.032018372444353016,0.025408148917927864,0.025636966662472283,0.027346938886823713,0.023047655303751968,0.017488926275499028,0.011875292324919906,0.013894271950455672,0.015477191699120207,0.011804609448191283,0.015927983861271144,0.017494447308524896,0.01990481106180786,0.027248424296594798,0.03611154201196265,0.04549549870608849,0.05229897324818966,0.0611675971538338,0.07332322341245578,0.08043454864613186,0.08836903497487125,0.09627585271995531,0.10794007994489696,0.11606723883314052,0.12741543933384103,0.1356846866455036,0.14333120307378855,0.1505400170899076,0.16203103736021696,0.1701954220985583,0.1784474379024109,0.1881858121964327,0.19458051104339102,0.19964712367836046,0.19228482339813757,0.1850067667996973,0.18269305971791083,0.1779729605369278,0.1719832863180396,0.1704033977880932,0.16472638540328421,0.15823523292910402,0.15339805886962465,0.15284058026247327,0.1480215713986215,0.1473342421397138,0.14294649071373355,0.1365656292944385,0.13018198688369131,0.12438195846467326,0.12393283549349177,0.12882365382402428,0.12498958023163953,0.12373026599542702,0.120465718463306,0.11804847029580234,0.12350174518302515,0.12911630580907563,0.12975797652752818,0.1339411180394674,0.1315278141603553,0.12827009981873727,0.12181917294940037,0.11472522138588559,0.1032301253498159,0.10011952110949862,0.09570481113581175,0.0943108183354533,0.09811908254558355,0.10603537105882999,0.11191825284814017,0.11197769724168183,0.11517386437793575,0.12165912553244873,0.12390823702606524,0.1288562972073638,0.12944441190171174,0.12483592180396863,0.12322119550129795,0.11828373141447768,0.11263924093310274,0.09983649428906449,0.0868279867081585,0.07382770545958128,0.06447154529425903,0.05370197235045049,0.04069639309829165,0.02768788551738599,0.014687849830967714,0.005407589166778193,0.0,0.0032494250898013055,0.015674690794094226,0.02868319837500022,0.04169170595590588,0.05432383430912335,0.06054092681408185,0.06901756100324508,0.08192086285201661,0.09492937043292227,0.10793787801382826,0.12094536037271986,0.132909864682749,0.14128242319641915,0.1540694716236951,0.16707797920460077,0.18008648678550643,0.1930949943664121,0.20610350194731808,0.21911200952822374,0.2321205171091294,0.24512902469003506,0.25813753227094116,0.2711460398518468,0.2841545474327525,0.29716305501365814,0.310171562594564,0.3231800701754697,0.33618857775637534,0.34919708533728144,0.3622055929181871,0.37521410049909276,0.3882226080799984,0.4012311156609045,0.4142396232418102,0.42724813082271584,0.4402566384036215,0.4532651459845274,0.46609629856675006,0.4741521541946019,0.48638823201348824,0.49939673959439435,0.5124052471753,0.5254137547562057,0.5384222623371115,0.5514307699180172,0.5644392774989229,0.5774477850798285,0.5904562926607348,0.6034648002416403,0.616473307822546,0.6294818154034516,0.6424903229843577,0.6554988305652634,0.668507338146169,0.6815158457270747,0.6945243533079806,0.7075328608888862,0.7205413684697923,0.7335498760506975,0.7465583836316037,0.7595668912125095,0.77257312120439,0.7839119514965329,0.7927008065326846,0.805698484822376,0.8187069924032822,0.8317154999841874,0.8447240075650935,0.8577325151459996,0.8707410227269048,0.8837495303078109,0.8967580378887161,0.9097665454696222,0.9227750530505281,0.9357835606314335,0.9487920682123394,0.9618005757932455,0.9748090833741507,0.9878175909550568,1.0,PM
0.6811893479688278,0.6355439996280214,0.5820037382310232,0.5238646581909121,0.46459448386067104,0.405383528549875,0.3399301706184601,0.2844947833651803,0.23578344947605778,0.1941682658717494,0.1631684039782466,0.16613112722089163,0.18759464937354053,0.20019110326236378,0.2138672157126491,0.218425550911153,0.2320589256985004,0.23975370386326178,0.25100960656478977,0.2643524835220519,0.2940058772787548,0.3306964660042677,0.376785794666751,0.4311993310667295,0.49728239913317474,0.5611436496056257,0.6251337447469925,0.697488579633275,0.76858884181586,0.8276395810170945,0.8969888239830617,0.9559749009563916,0.9986455759482782,0.9735717570016464,0.9103680325902754,0.838013094076695,0.7655542568867255,0.6932144188104377,0.6294200796813207,0.5653129675405486,0.49295491883901166,0.42049608164904173,0.3480372444590718,0.2755784072691023,0.20311957007913195,0.13096958568108308,0.06960036778219747,0.006976103248574006,0.014931337312202864,0.08537427295885403,0.15713910385849283,0.21669681241319205,0.28552291124861995,0.3575252250148089,0.4176658767349837,0.46326288285434414,0.4546592870427886,0.40698883747287073,0.3611148784110214,0.3543643754053649,0.35075625179589487,0.32589697378326354,0.30764552613272667,0.3002800154087657,0.2888006578891975,0.30642943869502925,0.32965689140625054,0.3370633561839371,0.33712110434136644,0.33712110434136644,0.337111857274488,0.3331794773905945,0.3218382713166341,0.33436787295632975,0.3269212073040877,0.31993176484717933,0.3198833547358384,0.3178276956300312,0.3040914772032406,0.2923726376775799,0.28510650790422165,0.27458482004309914,0.282932382173255,0.30204211522099556,0.3389685728021341,0.38578414654264037,0.4343309821130257,0.48739322605868685,0.5376880777538675,0.5903932400775611,0.6421544159774024,0.696165918770371,0.7303725399943484,0.7268220398716307,0.6927133869868531,0.6430384553895028,0.5874501849514195,0.5295695420375437,0.47120039407195025,0.4064830518923612,0.3455954260200138,0.2912100076108537,0.23839310493004318,0.1907305242311983,0.15210901138802502,0.13715458227198507,0.1611687908194721,0.181457637643462,0.19420715158679158,0.19923716632857902,0.20513626506321936,0.21616562600409628,0.21806607022274083,0.2367507352705709,0.2643415765549362,0.29492189135663915,0.33463000598724024,0.3919511253796215,0.4506758259583439,0.5202693724114722,0.57970863344659,0.6486845332826707,0.7170540337322455,0.7770565277969741,0.848077175892207,0.9061898359619485,0.9313555844852797,0.8819681331289977,0.8210092898564247,0.7489265759644006,0.6764677387744298,0.604009145272677,0.5325517573056544,0.48165327659658796,0.42229498259314413,0.36356271615855773,0.2934206953411529,0.2209639105811383,0.1485050733911697,0.0760469672658517,0.006309330163420945,0.0,0.06753499764079374,0.13998845633339352,0.2116469169824291,0.27092654629135193,0.34013577737364686,0.4120124891761199,0.4640975152758129,0.465853318070129,0.42019628006599774,0.364043005083015,0.3376729212288505,0.3359529263930576,0.32203899420317184,0.30715834647701223,0.2898651257365539,0.2860079950018033,0.30129229788658307,0.33221888447909587,0.343224983206492,0.34044206461364057,0.32361134943218994,0.31989248539317616,0.31988509362920015,0.31988509362920015,0.31988509362920015,0.31988458657607666,0.3186614293307848,0.3077423252890519,0.3103464346185034,0.3027216831094348,0.29651090343338815,0.28567754991255256,0.2849545140371448,0.2743325504984755,0.2834253481928646,0.30483068188781814,0.347105659431008,0.38992881863008844,0.4417986764717563,0.4942722280454195,0.5486260831349461,0.6030102234577681,0.660365382030355,0.6994397441202267,0.7145180894644398,0.6927239951343176,0.6457665377287549,0.5969559608149071,0.539314797032389,0.4788743018251065,0.41327769591386554,0.35496652631899117,0.2999445254503108,0.24577051947176853,0.1979032050774001,0.15753133380837792,0.13869196873501588,0.14949960694340714,0.16526576046781516,0.18025989762114003,0.19482600087561863,0.19922553261616782,0.20242864865229038,0.21560086241916432,0.22533535524234516,0.24886424869507717,0.2796297677742574,0.3225106838418652,0.3780631342112617,0.43957154308211255,0.5032862360592167,0.5747344901761982,0.6339383673247485,0.7033079793475947,0.7751612644378185,0.8351710198709945,0.9034476056139185,0.9720524165357092,1.0,0.9584427617133904,0.8942832459224643,0.832023487899181,0.759741327783797,0.6872824905938284,0.6148236534038576,0.542364816213889,0.4700096483374949,0.40601955319612815,0.3421154403790241,0.2697654781661747,0.19730664097620432,0.12484780378623572,0.05268858355947126,0.012756785178585694,0.057892876834718,0.1256737670051713,0.19811099323386872,0.26693900881094335,0.32662647624119234,0.3975946969539934,0.4538325394288214,0.4685370025542115,0.4268757672772896,0.3755912450720271,0.3547532757646481,0.35070492625992467,0.32788998035970307,0.29576924381195147,0.28281809197608343,0.26936939010684124,0.2708958386434861,0.2980323959464455,0.31886035063387297,PM
0.19896387299632146,0.18459200193094416,0.1879295688717053,0.2024271942327467,0.20887391424199864,0.20305623329631373,0.19699486139731515,0.18900893802057595,0.19444218817650727,0.20361964715534842,0.2089850166055729,0.1996515946069921,0.17820168782854706,0.15359258700783318,0.1284460307133266,0.10179042444363162,0.07329703406057742,0.048312892428098664,0.03740370232953216,0.04959089890391022,0.0665861286780629,0.08355808766165573,0.09655367870631193,0.1062378826537218,0.12239956720064571,0.1469920431397187,0.1777774400615717,0.21266138911040855,0.2504195413962196,0.28624613304664615,0.32469464429014216,0.36010145492706025,0.4005350764811919,0.4402819010335941,0.47507518686078853,0.5149854805067704,0.5557073895934999,0.5964274598761572,0.6358587873241404,0.6707397098065129,0.7108790277305914,0.7516015336042048,0.792067768521715,0.8275109733324504,0.8660492909504367,0.9045089613199513,0.9381154882715459,0.9518443025551553,0.924116295977625,0.8895648163079837,0.8500012414215243,0.8098518691667997,0.7749663342288915,0.7355537057276047,0.6959113546959399,0.6611321899220055,0.6211404972603725,0.5835263487335332,0.547274874421966,0.5066646724536268,0.46764840751467895,0.4325466288728941,0.39221435476879996,0.3530234832372663,0.3184108070109779,0.28438748953303294,0.2563049658312131,0.2269314450838784,0.2044845581243495,0.2017462900907423,0.1949032372652817,0.1783453319832924,0.1632875746367708,0.1448628477228162,0.14992627986984397,0.1670306306393814,0.17713315693461684,0.17035742745631222,0.16211744189277977,0.15295931726080902,0.15533595386573062,0.16271653012637555,0.1758936197544807,0.17753983323488498,0.16505510658947364,0.14197168864753817,0.11288049313075055,0.08957685339583565,0.0639842186332309,0.040884798165512715,0.021282378261349377,0.027819863607594142,0.0445424716661853,0.060097668738475774,0.07370753663110197,0.08737374204605652,0.10149257477729501,0.12128487903586382,0.14879666849314122,0.18268699412733658,0.22041694176614213,0.26110914511184835,0.3018219575852634,0.3403910002134576,0.37583359050370957,0.41627921942539303,0.4559927009421796,0.49079521168044526,0.5307295887277872,0.571451591765181,0.6121740515037841,0.6522757566607968,0.6871216643744895,0.7266252997283691,0.7673457995551383,0.8080635384447354,0.8471464735232728,0.8822029360358341,0.9222903884991649,0.9575646155106836,0.9837702740366094,0.9740008913264855,0.9396669114756324,0.9041729753465424,0.8737570768518124,0.8378109694580453,0.8014694439316676,0.7639846246941968,0.7233814981822393,0.6867721551999726,0.6495222138585215,0.6089112491201973,0.5720748664682769,0.5350598030228446,0.49439583305954904,0.45367284859625845,0.4129498641329663,0.3722713560958,0.3349600861509654,0.29908298086532836,0.2644475862380542,0.22961581394677788,0.20467580529353113,0.20184741795871486,0.19629522278833123,0.18135886763338527,0.17287543829632823,0.15352679747889963,0.1620744662327278,0.1795142267493004,0.192256648606979,0.19133347428011938,0.185615225042294,0.17716520282464177,0.16577168095213435,0.15445842953204836,0.15414675117028365,0.16625951596879363,0.17591285434253812,0.17762681359421584,0.16400998303903247,0.13994349155708807,0.112890567542546,0.08699678512842812,0.05893414393194529,0.03509806206618915,0.019000824953531614,0.029491408067755298,0.04736878172634351,0.06140130079122108,0.07544616436167084,0.08177242490442094,0.09537963414431117,0.11816221941267702,0.15328993012176872,0.18951896332661744,0.2270659636082295,0.2652234740046566,0.30095193479087645,0.34103380278753836,0.3760536732344293,0.4152254646583484,0.4559344067495068,0.4945503383613872,0.5299571745100065,0.5703919597669331,0.61111487031307,0.6518339414272736,0.6911159578597796,0.7260444478204697,0.7662864336199315,0.8070090781030277,0.8477051190228377,0.8854075889091253,0.9215846099078246,0.9607962193558335,0.992835623521261,1.0000000000000002,0.9687104213335085,0.9324741621786223,0.8949349302789471,0.8542479969613537,0.8152122912117847,0.7801207474071237,0.7397933054403416,0.6990704612914047,0.6583474768281139,0.6176249404331284,0.577533943955219,0.5426714712949894,0.5031737833956833,0.4624567767093546,0.4231683404217066,0.388209874214114,0.3481697400445225,0.31231720470093594,0.27579591669965553,0.241205961058518,0.2087360606598796,0.2004809546132571,0.20026734678011793,0.19049860656385653,0.179437246496311,0.16884306882559885,0.15486332988510387,0.16464606441401397,0.17996720328675764,0.1924396850277783,0.19422032288276925,0.19373633081335373,0.186549050716305,0.17755738986744518,0.16646189982983994,0.1590207570276252,0.16510782289422,0.1732249532241419,0.1773531120856333,0.16513857038911084,0.14694266569958891,0.12297598163149281,0.10836586704671625,0.10036798205493636,0.08278648251692977,0.05659427467261979,0.030896232728581108,0.015198244594510246,0.013469245158877374,0.0,0.01916852759289922,0.0526842697030081,0.07156132107530278,0.09118824479520793,0.08768391842988876,0.06097416419123958,0.03380316961140695,PM
0.5375974898052671,0.4990955196137774,0.4574468030898087,0.4133482301765785,0.3696906304052232,0.32737454423736034,0.28202472044736404,0.23748139037672766,0.1970119406337043,0.16033247046126697,0.12276678311128086,0.08886368602563155,0.060022428177021414,0.03704129196828765,0.027295570511811196,0.035767974874274744,0.055748094913436574,0.07933887968594444,0.10919235543820549,0.14604742418400685,0.1879051116831847,0.23303698225004732,0.2770103890969262,0.32553430056328425,0.3700952942126041,0.41828613182656293,0.4680996919735183,0.5120073597585133,0.5613350098778009,0.6111033054217445,0.654997862344747,0.7043956015881259,0.7546209568674445,0.7989617987580533,0.8474627126892127,0.8980875776975159,0.9459691147553069,0.9835949338980634,0.9886222899634727,0.9529987689224004,0.9064837891719324,0.8561926010271521,0.8115908390708517,0.7634650400467795,0.7128294545857286,0.6621795987102372,0.6115349506537666,0.5625251397619007,0.5185099711259593,0.46846882208868457,0.4178193167507085,0.3671696469060912,0.31709954224314263,0.2750055368072044,0.25856297408265383,0.25196417387119796,0.23156207469766876,0.20487987430217403,0.20488453947161522,0.22296468072546305,0.24046004931336817,0.2555782588153408,0.2570930555954829,0.2637886319222338,0.27256325509792445,0.28223100468400775,0.2901810848529347,0.3065985345461426,0.3119153051753012,0.32407207947693184,0.3487538506984933,0.3793050649332672,0.4133199729685828,0.4481586311630301,0.4854538149350618,0.5218829711640611,0.558950366698669,0.5913017479144254,0.6104195879218701,0.5970020873069646,0.5611908075774483,0.5207843184520047,0.48180019490987336,0.44124802518009965,0.39906533241569253,0.3569765437958967,0.3159296844605384,0.2698205770736726,0.23014024586873028,0.1940380209458359,0.15928131702132964,0.13385311426832347,0.12341322339634053,0.11713626029747481,0.12384612836382058,0.14286503058639677,0.16699948535731157,0.19454727758802948,0.22947987095883904,0.26626400732297606,0.3096373860559323,0.356074803163817,0.40023711490077507,0.44881725380430226,0.4947472701186868,0.5413723255424694,0.5892090496332254,0.6250362313145803,0.6658362843734988,0.709513602030523,0.7590190507282888,0.8096672382210452,0.8603044288788921,0.9085595892888976,0.9510202294713408,0.9904189025894814,1.0,0.9673768303119301,0.9203101022755673,0.8696941149021149,0.8190880122727295,0.7721214985692852,0.726496797084029,0.6759836888180786,0.6253338329425877,0.5746839770670962,0.5240924826760007,0.47737774310897296,0.43318399449396217,0.39574553543310875,0.35395524048749216,0.34894488094905074,0.3538236111747446,0.3304267069700535,0.30278862950437957,0.2906947936863389,0.305217451061937,0.3237793326244951,0.3393950451411869,0.3337712944519149,0.3287106279671783,0.32000094174927596,0.32301873532303493,0.327664942299549,0.33004090098382544,0.3323811367408598,0.33835422014410144,0.3529641828439676,0.3750675831123207,0.4066418533145606,0.4416843850675505,0.4755176267831587,0.5114574181653622,0.5519849062367561,0.5811570995950741,0.5844219973331735,0.5568833213601172,0.5196989100230414,0.4797536595926475,0.43473114429907667,0.3883439640482764,0.3474849295955489,0.30531066736773926,0.26315632999820404,0.22253951145310213,0.18262066093564355,0.14337643051893156,0.1069789508677339,0.07196058200984567,0.04104813013942077,0.0185038809456477,0.012096455820991059,0.013367984444489167,0.03293352127870097,0.054461865747369886,0.0833830477730726,0.11386544295437506,0.1513446763999282,0.19386178038811996,0.2372789999617324,0.2866823839411825,0.3373303166017003,0.3876502094959844,0.43222683328456935,0.480346392663646,0.5269054717599431,0.5728998309447009,0.6232610132452883,0.6683883953209948,0.7158899118971658,0.7663086963744821,0.8113018568601267,0.8563195690758532,0.8965464770264275,0.9148833232277918,0.8859697117873351,0.8372167225021956,0.7933481093519803,0.743955897621644,0.6933085190796893,0.6426586632041971,0.5920945592598985,0.5458741444526265,0.499531005840971,0.4489482371201605,0.3982983812446683,0.3476485253691768,0.2970084459213802,0.2504585350470818,0.2390197539275143,0.23750314527292016,0.21500978032536944,0.1865488139021969,0.18556258193832487,0.20612143176701814,0.22275449686562498,0.24252234634851733,0.25010343438607374,0.25447516990961816,0.25752895548001353,0.2608406734024149,0.26970512672945124,0.27837033327516814,0.28231787790507146,0.3002378810314301,0.32195510911961955,0.3489730051814237,0.38251683207763754,0.4192926164750863,0.4604523527622042,0.4969983741900925,0.5318151318317834,0.5530323641858301,0.5399044378840425,0.503580078108288,0.4607070869826184,0.4145253082595526,0.3708876395118692,0.32853339954520266,0.2875010658560959,0.24561736280341084,0.21267040453479757,0.21853416474176335,0.19704909904414825,0.16376117771197762,0.143127479515595,0.10961130942507746,0.08814374965317229,0.07886945603924866,0.047732194121363314,0.01602122852171406,0.0,0.002121232478002222,0.014807422737884934,0.03603553911142754,PM
0.014557699679145664,0.03626499769153235,0.05750044448177305,0.08031029845062698,0.09834790275918981,0.11281122353205686,0.13101554253578862,0.14365038787966466,0.1558269095394833,0.16626542887235973,0.18607179478085523,0.208317277157976,0.2364304702040798,0.27356781529652063,0.32252830392358045,0.3712326568214295,0.4107018118448844,0.45811980918221873,0.4977756212884439,0.5451880953214767,0.5946731043145645,0.6356721988821132,0.6814019291401607,0.7311386824613522,0.7808902997975486,0.8294594862323106,0.8688700442096768,0.9170932500595297,0.9649553465221092,0.9984820273623647,0.9999999999999998,0.9684959806529678,0.9312321636810224,0.8936810954044592,0.8482587099288763,0.808836248116368,0.7610796341443902,0.7113398407961828,0.664720913369192,0.6245231487942446,0.5751264822214341,0.5253746136285871,0.47562270444812715,0.4258707952676677,0.3761546549257806,0.3315851364144067,0.2895450375623112,0.24611408327185802,0.23008365027455402,0.2226986868202243,0.20664312903650406,0.18401537252618305,0.15641802653979764,0.13581194600895086,0.14634987056810655,0.17335537175057536,0.18808543590659643,0.2005451359277146,0.2102218651222889,0.21065580683449991,0.20794969722124246,0.19807485701241112,0.19761096558447755,0.197843092670541,0.2063394522114803,0.21041542219525478,0.20580633234872603,0.2056251643085225,0.1977945785163404,0.19761087861102156,0.19761087861102156,0.19761087861102156,0.19761580672470758,0.2008481721416071,0.21013429972601494,0.20423009836437012,0.19945120815772088,0.2112775138639431,0.22948398751489418,0.24594105430068702,0.24602152357317686,0.22384658758502307,0.19181856152429488,0.15859289444660063,0.12162799450106765,0.08369275516552732,0.05376626724171474,0.02351065658195428,0.00393066844115908,0.011712203613173378,0.03667655519203117,0.05521955546996016,0.0783237078473451,0.09926267539342137,0.12465414380003659,0.1332811756664516,0.14887015859937835,0.16023186308459203,0.172199139544569,0.1847690885747555,0.20263864101920182,0.22593481791820635,0.26149500551279803,0.2999632755617052,0.3392404545696428,0.3849930840680764,0.42442471923840075,0.4725528988598786,0.5223035081236203,0.5720554173040802,0.6218070964880671,0.6705932886036636,0.7100978090448715,0.7580123698749495,0.8077627648102703,0.8572153313117148,0.897893893882223,0.9437967840360815,0.9827199592703486,0.9911021338576982,0.971524912706806,0.9465885120427304,0.9069524296487799,0.8636710434895563,0.8206342971712612,0.7759487454210594,0.7340521612617958,0.684458789014539,0.6359422115905151,0.5966197434230016,0.5482536721430253,0.4986178741723266,0.45614273464820587,0.4120116918665435,0.3622989113148585,0.31254700213439857,0.26294064352884905,0.2303684544336846,0.23590218235283777,0.2269022059777519,0.21191618746811902,0.18739916815849855,0.1620956525390287,0.13716356206976577,0.14884500255085542,0.16811267192910395,0.18403301687119922,0.19447655348790494,0.20354580393105315,0.2046661913145107,0.2086212466355175,0.21066101667032489,0.2106630770071296,0.2106630770071296,0.210589867622766,0.2050762881135919,0.2076256965879113,0.20085545061775023,0.20499515088104237,0.19875906037740143,0.20756853305196477,0.198990192134876,0.1924703339437437,0.1880935917774711,0.19719668984406602,0.19761082497739024,0.19761087861102156,0.19766843487519892,0.2057562692210324,0.2235597205591897,0.24386347722809565,0.24333854267949007,0.2245373191394131,0.192932190881556,0.15845193428285742,0.12226527167431889,0.08898106626431823,0.05276997841623099,0.024027928279403588,0.0,0.0010957857620146338,0.017514027554634604,0.0428501093782685,0.05821894483012868,0.07810162218867966,0.09796903173876292,0.11247077835201647,0.13031924652895266,0.14004574395762837,0.14907091629087943,0.16558740795568316,0.18576906253644743,0.21122085471266838,0.24093334697099045,0.2776997987413863,0.32138438303470207,0.3621648961028121,0.40791110972237443,0.4497615582261474,0.49453131782736626,0.5407827318644303,0.5813555762249016,0.6307135831834592,0.680465441629402,0.7302173508098624,0.7799692599903214,0.8297211691707818,0.8794703707086635,0.927045866908027,0.9661484265826099,0.9996780084648662,0.9964267984643584,0.9622278049623454,0.9219038681018967,0.8813770765174043,0.8376600876362257,0.7980355243611428,0.7490423333734271,0.7059253709816435,0.6624503547716187,0.6127492938184484,0.5650483517797722,0.5254792321446711,0.4765438486235014,0.4267982661891907,0.3796020489164833,0.3461851077307052,0.31528993328908306,0.27081015603032843,0.2348492690319699,0.22373901900420523,0.21785403249195778,0.19791151086189918,0.17601083138737805,0.14644178198213909,0.1409468840253567,0.15446358425248552,0.1717383227200029,0.18946626791427668,0.20309218465885315,0.21054463707328686,0.2106630770071296,0.2106630770071296,0.21055816507069447,0.20356515430577526,0.19992412348733812,0.20999931324356003,0.21066284873251795,0.2106630770071296,0.2106630770071296,0.2106630770071296,0.2106630770071296,0.2106630770071296,0.2106630770071296,0.2106630770071296,PM
0.23063592096904006,0.23063509333464083,0.22955112063416205,0.2194469429840029,0.21799595610738143,0.21799526991455487,0.2178686052718053,0.21065592463587635,0.20539261922003904,0.20535461886006967,0.20529296983708,0.19855142696233408,0.17285164516575202,0.1338214665277162,0.10679800172817444,0.07214137946732646,0.040132472805544994,0.01750650563663192,0.010198223517093652,0.03158500088173022,0.05610870134168833,0.07783507985706684,0.09460665285940006,0.11471375352112556,0.13533753757391587,0.15592686433293146,0.1694318006156572,0.1845443156579183,0.20241769690218714,0.229338533722947,0.2654384218286352,0.3043172170247139,0.350433998868263,0.39924403440981404,0.43992601969198564,0.48502468032770674,0.5320248238102221,0.5712203643375382,0.6195963744387036,0.6686120688478838,0.711263667854737,0.7542593235578345,0.8032194133772506,0.8470315767611791,0.8888942372655975,0.9372685518663579,0.9748865243910134,0.998115446324495,0.9858038487990366,0.9594476729186194,0.916246432455325,0.8686699335454531,0.8295880713631547,0.781693567195429,0.7326184920122047,0.6837025345651493,0.6425949914274849,0.5980091184588399,0.5489572572293411,0.49988178842957476,0.4508063196298089,0.4017941183604061,0.36037897046369727,0.33342929717093517,0.29250349276472054,0.25877869180231317,0.2559031330263095,0.2518096588304304,0.2326248998559155,0.20122267664789728,0.17549164052910715,0.16745998621926583,0.16232138833489484,0.16580642608496365,0.19288409804350426,0.21719412136245353,0.23016514241487762,0.23063584650104518,0.23063592096904006,0.23063592096904006,0.23063592096904006,0.23063592096904006,0.23063592096904006,0.23063592096904006,0.23063592096904006,0.23063592096904006,0.23066312673673295,0.23534624925469227,0.2436265793978012,0.25111541329517717,0.23818988126844198,0.21006795658871935,0.1774081987336933,0.14468085053409752,0.10983901775838012,0.07923158164906674,0.05780377804633674,0.06157657552221796,0.08046347333996784,0.10229303846056581,0.11885687520334676,0.13602547376520002,0.15394501547896366,0.16636033281922158,0.17817400322231203,0.18956728789091049,0.2137201862917184,0.2449018620225063,0.2846585205100802,0.32451236536123895,0.3646551383841894,0.409728898039992,0.450847776539971,0.495441179460133,0.5444173960285785,0.5864966737273902,0.6293724013837685,0.6625059059705385,0.7027087938024663,0.7433016449996308,0.7884030310672769,0.8374596186189525,0.8847662231294855,0.9237709428662817,0.9716265163331248,1.0,0.9883348586641376,0.9526117665462177,0.9154285425951167,0.8697486057184141,0.8293423641981539,0.7839174415430064,0.7348491845011829,0.6857755717971536,0.6385448402202125,0.5993524070052225,0.5511876908533861,0.5021125305638812,0.453321687422918,0.41279929450330277,0.36751976320019697,0.32058363593645556,0.282032905877843,0.25394352951329413,0.25413413090002956,0.24497113505364343,0.2284250680733746,0.20627614496009405,0.1788728743417689,0.15921712953251266,0.1528313567758417,0.15044412555632736,0.17286202417610674,0.19736381275686865,0.21602862730990235,0.21799532355510332,0.2197660439400737,0.22983455123430474,0.22850321332019874,0.21868530120177487,0.2138180263719418,0.20131175522697387,0.18197846601508472,0.1625535908915796,0.1593667208235221,0.16890797990577644,0.18298186453234466,0.19248472396776917,0.19900028098218536,0.20477687179737192,0.1955592317799133,0.18472569902100933,0.15556535500686364,0.12289970353136237,0.09012253251529434,0.05457614386167364,0.02097877712290175,0.0,0.01453223545391169,0.03901855571267232,0.06342019926271303,0.08289478609064971,0.10059778749941861,0.126817278158871,0.14318589448050512,0.16009875372368798,0.1765931735433579,0.18965412964476336,0.2094011248330956,0.2353912356200225,0.26762395118876103,0.30398769286587024,0.3428120063660023,0.3887829117411714,0.4290042628440007,0.4745756316991616,0.518374649344564,0.5602373098489819,0.608613126338208,0.6479437733440627,0.6947007471446751,0.743771614031973,0.7916660366395138,0.8302142277193458,0.8631521066691441,0.9022728164384466,0.9491442902084475,0.9816205880284201,0.9829625634597909,0.9547367899353878,0.9140181251631172,0.8723128788701495,0.828500715486221,0.7794642032384904,0.7315678027044963,0.6925688687967169,0.6448770236170747,0.5958041361129167,0.5487635956665624,0.5095158769352266,0.4612161221671389,0.4125648744657866,0.37393608353575525,0.3459158744512236,0.30307018469348224,0.2707075764849929,0.2664270784186633,0.25601126688789666,0.2410692043255671,0.21710817606876498,0.1990830375440371,0.1915255142105794,0.1762838653504435,0.18238417643402238,0.20637520591746616,0.22570080624722477,0.2419809151046084,0.24916786983041206,0.2557296084890033,0.2495630057673548,0.24327982776142631,0.2377101436835587,0.22998015079737932,0.219768000392373,0.20966829220781236,0.19524130882585355,0.1927179167809685,0.19270337258257664,0.18957592842959636,0.18042812912558137,0.18004522060699246,0.17490522380064544,0.15744661936491422,0.12910410881820944,0.09556523173505083,PM
0.006864490327777251,0.03911653060064535,0.08277916663347473,0.12922752906626345,0.17602545845051654,0.22246004354726678,0.2712469030694542,0.3170875912860922,0.35886131052759973,0.40496412278620264,0.4540879445418804,0.5007877907959395,0.5517457186774921,0.6028873345262131,0.6506290951059388,0.698654954929294,0.7498163331664904,0.8000206127198981,0.8461596874183102,0.8966606117372424,0.9471108992279953,0.990248426882421,1.0,0.9618940873650124,0.9112020022698679,0.8600649258500901,0.8123930794361129,0.7643020940596943,0.7131289470588082,0.661897004106472,0.6106650611541364,0.5594331182018006,0.5082011752494644,0.4569692322971286,0.4057372893447928,0.3545053463924568,0.303273403440121,0.2521181712698748,0.20566731765225366,0.17652061632253435,0.14729938400708842,0.11041582281404927,0.09913644115529308,0.0891746501468722,0.08209960113282255,0.08977877923083866,0.10194124789708559,0.10497360190631211,0.1165655896048221,0.14110512158713595,0.1726259955098841,0.20517679346724704,0.2383326141308877,0.2680638320150379,0.26902772179132883,0.24296055863773303,0.20780373639453442,0.16979910000372556,0.13034057450681114,0.09152206794902606,0.056965207837432974,0.027688169319756373,0.007249468557026795,0.007086527239273721,0.03331284795505196,0.07316954406103626,0.11746845106343362,0.1627777644445083,0.21296238153052904,0.26418154335259825,0.3135593869890787,0.3534205642525261,0.39449912535964193,0.43500950184281995,0.48013913754749615,0.5304051701534163,0.5785944379340375,0.6261732621895888,0.677264920128082,0.7259038110905769,0.773069957893934,0.824137968177892,0.874421887767028,0.9193296020780215,0.9414764860020186,0.9102149733202567,0.8603825106331373,0.8118979583858597,0.7646026486381596,0.7135052572378915,0.662273314285555,0.611042325196953,0.560415509185985,0.5142303551077356,0.46419552611307835,0.41296782064289217,0.3617358776905566,0.3105065383608403,0.2602670286287343,0.21916341890889246,0.18415779944686417,0.14240052229509348,0.1113461054299898,0.11078026021661724,0.10220901877186295,0.09175365319102857,0.0979062368148067,0.1126191875837459,0.11840414036387603,0.13103934789109872,0.158824280867774,0.19287150224310956,0.22535366089832864,0.2538782342850472,0.2618001684510034,0.23772926818568485,0.20089893451252783,0.16409151019337576,0.12744517187167137,0.08826494594762813,0.05288499391592549,0.023858089581536124,0.006714079973348719,0.015875623848287113,0.0471716371628248,0.08791289227264332,0.13305308613809852,0.1791385102619396,0.22785060343270702,0.2745459930534975,0.3252417904482301,0.3716156962514028,0.4128186901985542,0.45445735190759273,0.496721103101071,0.5473864236149297,0.5973506041136578,0.6435679913689771,0.6942335856620017,0.7453042890331094,0.7924724250202573,0.841107531332626,0.8918117147759335,0.9283587179287287,0.912178845386505,0.8669611415093541,0.8159994097116599,0.7658215260830934,0.719683635235242,0.6691533087274313,0.6179224717507414,0.5666905287984054,0.515512684525389,0.46726799557446275,0.4197380029895086,0.36861697810807925,0.3173850490312291,0.2664152466760741,0.22616038811625527,0.19073382271148454,0.14568042879055,0.10667948708253183,0.09741194512574536,0.09021661751672538,0.07818081917939401,0.08112966094889051,0.093352361517693,0.10011709115634004,0.11573533507178779,0.14118792891852006,0.17160950842301204,0.20632594632011414,0.23188895892832662,0.2384192857257592,0.21311305774495892,0.17879875061841166,0.14186839132077989,0.10503175594293412,0.06970161734422087,0.035633326240447794,0.00745810958483295,0.0,0.016798433666766144,0.05270036980550108,0.09473289036664445,0.14040525062451592,0.18633857054450664,0.23622226753600306,0.2824811290874054,0.3322781873412397,0.3803883680741893,0.42803677408118723,0.4788194303435582,0.5252232220496778,0.5690763958739036,0.6103096428625421,0.6511591084378272,0.6976206437074988,0.7455135112068432,0.7966698068152938,0.8478717186392772,0.8965927903478661,0.9436369269086171,0.9864095187736817,0.9746044479595737,0.9300951444416603,0.8812871334181067,0.830080799375021,0.779023024298142,0.731948651623296,0.68320996975483,0.6320072241678578,0.5807752812155234,0.5295433382631869,0.4783113953108511,0.4271888133346229,0.3796332446186783,0.33141655004133175,0.2802394744118235,0.23041422500602415,0.19789762320683257,0.16162138568161932,0.12015713214258872,0.10687381973749632,0.10776122399727961,0.09377754055530052,0.08113845316847845,0.09532635931359557,0.10556138228861767,0.11036778236728928,0.12641619017507355,0.15445448302273945,0.18334941956608208,0.21675199403011725,0.24833464067903632,0.25570467562920696,0.2329209141011357,0.19548563015213083,0.15804946942955134,0.12061287959261047,0.08492612126232868,0.05077908049330082,0.020075335840271658,0.0169788472662582,0.022277995409714535,0.027505127344851665,0.010929681979812145,0.036004393456787076,0.05964914747946848,0.07187879024542232,0.10573892284484576,0.15104597372818263,0.19944097692320684,0.24604675900863282,0.2928760024183792,PM
0.23905478498437682,0.2144564400631067,0.18905273680986223,0.17673791262493377,0.16958310724315395,0.1491842253257476,0.12773523268187992,0.12424746128718067,0.1511826981708968,0.17884901878336135,0.1874144422564008,0.180807333452907,0.16764543270115317,0.1606508179401911,0.1779787632775437,0.21374515833318997,0.2540743862892779,0.2933226066324329,0.3258357362626839,0.3669950234536038,0.4096269637342155,0.4500586342735581,0.4942480657953837,0.5362662266420454,0.5772544440257973,0.6215168113903137,0.6628575645031592,0.7044798315252413,0.7467201742686017,0.7874575520629651,0.8304399789694911,0.8704615591746757,0.9021933851108314,0.8767755794987894,0.836422084393932,0.7941011273633068,0.7533160902209318,0.7111405186785899,0.6694512794651714,0.6281772833773781,0.5838060263683521,0.5402395148824967,0.5002951512557269,0.45649560877883755,0.4134127062958243,0.3732601286703606,0.32917621403234254,0.2847402867724108,0.2424737395551485,0.20211110089757167,0.16223497120560526,0.12211166489217518,0.0858639082404905,0.05692617615907347,0.04739808733118622,0.06403839967911751,0.08303157242077153,0.0933748956194167,0.11195367992137673,0.14009731808001347,0.16850601779945673,0.19462124617783438,0.2033081215977618,0.2000943732833288,0.19470213027229055,0.19051358596645362,0.20654354555524124,0.2232325081037444,0.21301295739437887,0.20940490089299513,0.21034630074976857,0.21936007063940832,0.253189283154163,0.29166793322673124,0.3346986557828028,0.377561207714162,0.4178526462040536,0.46201532913570265,0.5064772845379019,0.5509195514242288,0.5934053289638003,0.6339864219413515,0.6782530814454916,0.7227140641164839,0.7662924094658469,0.7997816452795735,0.838025638798528,0.8818678789800912,0.9029629937367699,0.8704898524268417,0.8262377991910256,0.7818465935031741,0.7403864354929478,0.6988614384926114,0.6544633123313298,0.6106466024201652,0.5707165112027602,0.527145794958754,0.4826863570542982,0.4382242333186738,0.39376210958305025,0.34929998584742583,0.30484432696150254,0.26174396672873745,0.22168267975866907,0.18083478422140487,0.14305237434318285,0.10863448499119199,0.0805423803548202,0.07179258537854172,0.08627613507380294,0.0750665992602002,0.048299198107846775,0.01918679466184936,0.013212295790044348,0.03949198399150289,0.07548316560524071,0.11258255748025947,0.14834497527679846,0.1791288657893345,0.21830562642449836,0.26036738164626916,0.2985135779787008,0.3314275981478759,0.3291865913459361,0.299464335002655,0.27074813352975535,0.24174957717411927,0.21658707852955628,0.19640097930299794,0.18833594226558859,0.18899386071407143,0.19079272943715486,0.19184657534935623,0.1860969342808273,0.17948009344085836,0.19583220494603848,0.22953087260491156,0.2714569124178322,0.315887902504587,0.3603499497318171,0.4045959282204329,0.44512515562619404,0.4876748743566116,0.5304099934696666,0.5659449406125548,0.6085930483335394,0.6488337491473991,0.691765502575768,0.7362181027904803,0.7806796277567,0.824678559072927,0.8647126022610477,0.9077277117761574,0.9324555236588868,0.8996362660968372,0.8555288340065353,0.8152040904048995,0.7723818380163946,0.727931640013559,0.6840837893118138,0.6441388674847733,0.6006140329963202,0.5561548368209831,0.511709833911019,0.46918480401756735,0.42863126049907063,0.3843790351542852,0.34004297389889737,0.299093794927933,0.2570480077098446,0.21450775352507623,0.17430793804441147,0.13468683138610138,0.09925518748102236,0.07116907395572336,0.05081657670284456,0.03679444928529785,0.019409428928429007,0.0,0.0010277930012824177,0.029052481078324033,0.06543810716806964,0.10156306696063844,0.1375936614461457,0.17541246046367187,0.21363699504929579,0.25000414435888574,0.284793755591776,0.2879374806753293,0.2596817561050212,0.23417399037871023,0.21220196209364983,0.19354879226111055,0.18385300762861467,0.17786360774342425,0.1871148320326017,0.20130796190636735,0.2109774457948046,0.20450720677136947,0.1910308884975126,0.1943484279943547,0.2049170397187008,0.20594686156751307,0.19692939377432428,0.18745196111015316,0.18887179126360143,0.22071021389124623,0.26031623805614135,0.30094267511983686,0.3452194746032077,0.3882600605195331,0.42843230176739044,0.4725415751270471,0.5170034006017187,0.5614655243373422,0.605876828638373,0.6476266676627976,0.6888685419407156,0.7332412600122516,0.7777031303692966,0.8218214739589381,0.8620242183239745,0.9050251462011899,0.9494783522904943,0.9925140916767278,1.0,0.9595066233638571,0.9165288096096765,0.8763163106008339,0.8321912672743815,0.7878014363614688,0.7463550036216494,0.704815871457671,0.6604161071178024,0.6163194007162603,0.5761685044329913,0.533094360673002,0.488640042610755,0.44418474214917414,0.40111694563807376,0.36095461336880497,0.3168646224434798,0.27291863826665363,0.23294815456696683,0.19203284223342887,0.1530297090072389,0.11375587492149675,0.07946192587789436,0.054782089069705164,0.04314942012468037,0.038831308496960815,0.021737341712619096,0.009325134971489346,0.02502040874426603,PM
0.16759926776972067,0.20863509823594573,0.2514205857317986,0.3073822364858705,0.3642413147894281,0.4145207763009613,0.4692584131206594,0.5115182756055829,0.5474842781342995,0.5594628399581065,0.5338768412218609,0.4794976558948507,0.42785702692378447,0.3778421128125884,0.32766216892854727,0.27347777985121446,0.22103132663056657,0.17281708740390522,0.13406103249896928,0.09648758389627377,0.058923863861346515,0.025523899341845624,0.01898588417092384,0.015767815137716745,0.0007614991942022087,5.930962811051543e-05,0.019171654416587636,0.07670442845540748,0.13701164836793556,0.2043759569210173,0.26732786425128374,0.342228400569633,0.41728683024713265,0.4828337662434965,0.5484580003906387,0.6234757165724711,0.6986216064478987,0.7737674963233268,0.8487446318422354,0.9119939337269245,0.9440479106928938,0.9146448539095369,0.8527299830627624,0.7778642949491132,0.7052913046423797,0.6583580023606728,0.6050470279025459,0.5352768853197034,0.4601414614850121,0.38499557160958364,0.3100495216748991,0.24605934563581577,0.17886804563978442,0.11612952928330689,0.114318300330285,0.0952427032093972,0.04306430852527976,0.01967932498715186,0.018972265747531303,0.01897201210867161,0.018161137570020802,0.0038818836777729793,0.0,0.01997072176484238,0.05006188394588973,0.05762552687556166,0.06332380440807528,0.06430051002753423,0.0627431784677368,0.07636482441518089,0.07843165961294307,0.08837903227931276,0.08492623536017696,0.09461622387563473,0.08573049020935075,0.10962687742174815,0.15020371568903856,0.1868891770032728,0.23649813377994144,0.2868690283946722,0.3424628243018031,0.39092034134968534,0.4369346606516227,0.4869074738060486,0.5306052878059897,0.5336835749013615,0.5075363159824469,0.46666713593428044,0.416818438249865,0.3667492782645292,0.3196438791364393,0.27267628433022706,0.21788092093158573,0.1778535248822699,0.14048018277882957,0.11678120732593378,0.10417439426606512,0.08299540071403388,0.09343076895608382,0.09470342620740935,0.08014492917716742,0.11024006377871576,0.16274177138400203,0.22116303887358058,0.28048735129452096,0.35352253075171536,0.42482620823641914,0.4853888810450506,0.5596284083460845,0.6347741044798774,0.7093326917384566,0.770161171269315,0.8408806755207565,0.9113984992742683,0.967949428059006,1.0,0.9712690305166625,0.9022832763636259,0.8400419630414007,0.770941807699872,0.6958159576836294,0.6206700678082013,0.5455468303349131,0.4760265717518335,0.4141228691102592,0.33942277916582286,0.2647011065241722,0.21541903761257553,0.20477288912114266,0.1902376534909207,0.1844076124874343,0.19033702240500272,0.1697405173001978,0.1547699158487843,0.14971196084884264,0.1297624408556124,0.13633929029501823,0.16340023792380443,0.1735671221755184,0.1709413466796521,0.1601370932825863,0.17071150948838554,0.15618971658437175,0.15432636437816605,0.15434356390226078,0.16026721157911528,0.1659136527767866,0.1565518896122442,0.18083875175055475,0.19866925129679602,0.23765552758586672,0.2784095773026678,0.3278192129531652,0.38373277144535045,0.4371832029950884,0.4898264668352459,0.5395868820119909,0.5734594783167335,0.5683876416155855,0.5333620988257879,0.4832429460926866,0.42278346624430574,0.3715380653131355,0.3268456360730849,0.27667775488702473,0.2219426962512947,0.18077618886223767,0.14267476183962646,0.10249079050610543,0.07767906092602006,0.05822003535285791,0.05764460928773074,0.05764460632984347,0.05772929753994438,0.0693768090119029,0.11401330450222469,0.17789391441752578,0.24054349669575137,0.30858305179202716,0.3640565720005515,0.41859243578700633,0.47794851377830483,0.5515915005011283,0.6263047364719871,0.6883159614246326,0.7577151553000214,0.8317050792859879,0.8906714935164257,0.9211272136141342,0.8796552051745747,0.8110479654285614,0.735931793335002,0.6634434683547452,0.6034615049577838,0.529827243175625,0.45468182064643425,0.37954464609948824,0.3081957354023106,0.2478276911584425,0.17519837094827384,0.1562932904661931,0.18425220557971045,0.16701781294545137,0.12729070203717852,0.11564742605371636,0.1065497861203224,0.07959333305724137,0.06899849124457669,0.06383431801161077,0.039143034859556725,0.024876665882740845,0.042016615405899405,0.07740055668454504,0.09608226395941077,0.09625726215700903,0.0889014349982542,0.08898433821147611,0.07800520707991776,0.07698109755180171,0.07698083429980729,0.07698083429980729,0.07698106797292592,0.07795052785426604,0.09573178540558258,0.12796869299195102,0.1694369449278743,0.2141704206861208,0.2629405144840753,0.3130807447755726,0.3634363405619716,0.41901878813742455,0.4704917039472081,0.5240646645921765,0.5561684038815042,0.5520265695067854,0.517481107300394,0.4688030736574569,0.4161150962820086,0.3660321355145775,0.3142543260435309,0.2546678335929884,0.21365258412660548,0.1606650995232739,0.12277222157610224,0.09318485108449437,0.07714658691560494,0.06652831106371071,0.05771723675494256,0.05767871972075289,0.06461419251329525,0.0912483655441565,0.14663628227897973,0.20598521295850825,0.2794352166170766,0.34710374513058984,PM
0.0702400253254386,0.04269666428849439,0.015378014334059498,0.0,0.0028003705053532,0.010191062227594139,0.0221871685139462,0.0531979786575717,0.090819414832079,0.1289256104759261,0.1673079290564773,0.21040238751742713,0.25472180431259484,0.29473347503579184,0.3362747087519672,0.3754907791389589,0.4188768612755672,0.45948183515194996,0.5010502138762981,0.545536156104517,0.5888411010672251,0.6281404294076508,0.6720988576719612,0.7166129886664933,0.7588636961301113,0.7979332716222928,0.8322487366392649,0.8734715637454128,0.9135492016941961,0.9519601910217922,0.9617626743829503,0.9303404627323008,0.890770911119512,0.8466103849524199,0.8059324592622307,0.7644359372558259,0.719957187460163,0.6773725812161714,0.6376461053403281,0.5933855041314954,0.5488526643322152,0.5043197176815725,0.45979028997142357,0.4164202077751368,0.3771666588681829,0.33372867143215756,0.29436151140519085,0.252045506104153,0.22215775628063883,0.21528352618834157,0.20999913016169935,0.2015296626647919,0.18482215581287498,0.16789542002745128,0.16483447052872646,0.17814968330266467,0.18158319470364204,0.17962175974362216,0.1844231404005795,0.19679781937603835,0.21259885634984588,0.21061633259994605,0.18631178031582019,0.15660400962240872,0.12455472476612062,0.0903976520678077,0.058337966476605385,0.029956050718871974,0.007821049707015137,0.0006420867870372549,0.005529217322561286,0.013022005269577863,0.03712572854017948,0.07258009126769427,0.11078674033442326,0.15003103412881613,0.18910656392653713,0.22826473966785354,0.268519004162986,0.30977171283848925,0.3498950411427736,0.3919019827358946,0.43329402786700955,0.4740492684370504,0.518366272766677,0.5588508635565624,0.6005464488368454,0.6450414575127975,0.6892024610945252,0.7287476442641639,0.7716078306873385,0.8161327864155689,0.8602006339590847,0.8995696613746812,0.9376134519868263,0.9342806905110629,0.8980887642780356,0.8556365591961507,0.8164243131961303,0.7727032985111829,0.7282595358424228,0.6874013408098724,0.646093097188354,0.6016229400598371,0.5588813172021246,0.5192601313644337,0.47506382339765685,0.4323031127922802,0.392695806732302,0.3493481369120258,0.31014139234991844,0.2666180625892801,0.22787003676097084,0.21083115218421644,0.2080783325463592,0.20222632640961968,0.18831426223918635,0.17299732712440974,0.16572262282758954,0.17519225207092715,0.1816924901738558,0.18205685873819732,0.18710337679858713,0.20171156774564303,0.21816741113774352,0.2196910530958377,0.19459636402945935,0.1638511077403958,0.13206962714192783,0.10060496084467985,0.07080720527724516,0.04155605579530952,0.017058790909377453,0.006392618865202926,0.010062916867531801,0.016070659672205,0.03667716622306083,0.07261964829781975,0.11083912700846377,0.1499888159400703,0.1871940459437088,0.21772051397650227,0.2572193020331889,0.301613294994565,0.3428532694308267,0.3837775067893282,0.42789543396796825,0.46750407570926933,0.5098142246086362,0.5454631867317558,0.582984732227502,0.6229427863606735,0.6672664442913802,0.7113790135828307,0.7508420317059267,0.7938316242323834,0.8383499509883657,0.8812166245840557,0.9205908845234497,0.9541726694512763,0.9447105084185577,0.9084273518609859,0.8676321468066229,0.8251445208364482,0.7854101433860631,0.7411604310358965,0.6985663164266042,0.6588477421253031,0.6145890378419284,0.570056199997247,0.5255232533466024,0.48099032005238007,0.436590026244141,0.3961400125115625,0.35462996094134025,0.3147326821504427,0.2727639747045648,0.23506087511772,0.21751865161316808,0.2119514082645121,0.20637964183420887,0.19381864586801056,0.17400060068595102,0.16291856085444045,0.17357747292840464,0.18170671947195516,0.18199137749650307,0.18622297605516314,0.20004390878734746,0.21422471176471924,0.21067826450563787,0.1863654934679736,0.15660805928586108,0.12363803626794867,0.09212744402476447,0.05883435167466089,0.030720847631765857,0.01168868253696409,0.008948601465169292,0.013283553953486904,0.022645086781285406,0.04931948353793769,0.08559492307594507,0.12385084836398697,0.16290340134727976,0.19781512899802223,0.2289899364528002,0.26948810389456634,0.3099453645919189,0.35340627831363836,0.392602394231078,0.4362046860808294,0.4764045659520554,0.5173832834969007,0.5517098884028707,0.5909415054043329,0.6310539605966833,0.6754112971518363,0.7199435699738416,0.7639073863802747,0.8031790621861487,0.8465066970811036,0.8910348869960222,0.934854536451395,0.973744589816682,1.0,0.9765254350873352,0.9368153908490927,0.8925320993310896,0.8513502384723216,0.810368169847031,0.7659128171948054,0.7214641492637773,0.68057286172542,0.6392987526965309,0.5948238655841852,0.5513453069511606,0.5121077614454846,0.4683594459496848,0.4302444678645315,0.39877619632013184,0.35597241076561803,0.31590356870507585,0.27375727762229884,0.2323554938610538,0.21528056026145792,0.21122109097838904,0.20558800350464945,0.19463554885083234,0.17690969688292613,0.16079727540118627,0.16165847318751536,0.17651436990217684,0.18047649376915864,0.1753762707946932,PM
