0,1,2,3,4,5,6,7,8,9,10,11,12,13,14,15,16,17,18,19,20,21,22,23,24,25,26,27,28,29,30,31,32,33,34,35,36,37,38,39,40,41,42,43,44,45,46,47,48,49,50,51,52,53,54,55,56,57,58,59,60,61,62,63,64,65,66,67,68,69,70,71,72,73,74,75,76,77,78,79,80,81,82,83,84,85,86,87,88,89,90,91,92,93,94,95,96,97,98,99,100,101,102,103,104,105,106,107,108,109,110,111,112,113,114,115,116,117,118,119,120,121,122,123,124,125,126,127,128,129,130,131,132,133,134,135,136,137,138,139,140,141,142,143,144,145,146,147,148,149,150,151,152,153,154,155,156,157,158,159,160,161,162,163,164,165,166,167,168,169,170,171,172,173,174,175,176,177,178,179,180,181,182,183,184,185,186,187,188,189,190,191,192,193,194,195,196,197,198,199,200,201,202,203,204,205,206,207,208,209,210,211,212,213,214,215,216,217,218,219,220,221,222,223,224,225,226,227,228,229,230,231,232,233,234,235,236,237,238,239,240,241,242,243,244,245,246,247,248,249,250,251,252,253,254,Target
1.0,0.8182792220170945,0.602321155174131,0.7307886660274412,0.8366198084878596,0.792377345034744,0.7975976423258138,0.7514631985893001,0.738770401943099,0.7957525313065905,0.6895163348829365,0.6928047707612635,0.7907707706131835,0.7739210372759553,0.7836089925275675,0.7444361080604982,0.7620213285064801,0.8217227597360328,0.6902916952827833,0.5934883152217247,0.7574721957277959,0.714618756678526,0.7102243627136147,0.7161153727998488,0.7045285787203144,0.7812897503654703,0.7476156919543646,0.5528726809920006,0.6308673658650767,0.7746166570818918,0.7504674120382853,0.7794391488733068,0.7896445661373319,0.7633249044112185,0.8150515293232505,0.7080049355857694,0.5855553608414381,0.7551940574369003,0.7779288286391315,0.8030531514880306,0.8157225809741406,0.7600596251247598,0.7020197828718375,0.7448771855657874,0.6023853583033454,0.5317932505100227,0.7176169548727704,0.7210177936503537,0.7264910454427143,0.7183198786569125,0.7625657647738469,0.8495719636518024,0.8408551942440594,0.6508074209435988,0.7150360142162755,0.8606530467150486,0.8325303631317338,0.7863834508318612,0.6985377784750297,0.6763561394252593,0.761782519957225,0.7144742616570265,0.5118798938648508,0.5897755579807729,0.7397546660751555,0.7295539674940166,0.7469071787894181,0.7053393182217915,0.7182379289557497,0.7468879164477893,0.5745792623068382,0.5178216396533346,0.7131509560789095,0.7346378161408387,0.747816259632547,0.7761427161629433,0.7575363773379762,0.8268266568513725,0.807216473891776,0.618479589783981,0.6765206416246736,0.7825814705778011,0.6885818837622188,0.7012383226340557,0.70849582455246,0.7752680761103365,0.7880304144196038,0.6929269513864524,0.5130595463189838,0.6383619668340963,0.7125439653593173,0.7105416404599707,0.7359790752582971,0.7473629637615951,0.8277263920807825,0.827610368780298,0.7953580375434912,0.7106712932931771,0.6973186928423536,0.678422156125154,0.6506235992479548,0.6213259979836723,0.3654050819348353,0.2763877801662015,0.5189102343787853,0.7124018867777322,0.7426063078259255,0.6728750864158592,0.660265106362576,0.6372283591600572,0.7014771374720543,0.6718431359527031,0.4094455252106978,0.4088930589771516,0.6754208057020716,0.7872675592148295,0.7186510468543779,0.7293577039806192,0.7164769048747219,0.6846463156403553,0.6417818194609628,0.388762681671401,0.24208163114132225,0.4723470595297555,0.6923904755554215,0.676542404936465,0.6565563629324431,0.7077510655918493,0.6933677382088095,0.6866679581895496,0.5660019145268149,0.30346058593965214,0.35279448118031226,0.6214480561464939,0.7045859170348647,0.6237285629423606,0.6506685628716105,0.7369771688000859,0.7871779585722318,0.8045353229642291,0.6183544022158936,0.42274002530888627,0.593767302545223,0.8064599590293791,0.7868578375305584,0.6982817036375244,0.6762416476852613,0.6868416771810142,0.6790464019631968,0.5537426492077542,0.2842587112099347,0.3106959593375907,0.583595902120003,0.7025245492178349,0.6452195518836246,0.7225940982872514,0.7724269779342676,0.7536928045093212,0.7272042770301466,0.6635237508396326,0.3995562564957344,0.35998337751964943,0.6190575987372966,0.7724046563585862,0.7212156868969919,0.74081097943807,0.7414406530400877,0.7055928446867761,0.716508271229715,0.5523780673413659,0.32462194114114057,0.46508266711753227,0.7077134523279132,0.7277738610745119,0.655105274632118,0.6754944446021882,0.6722585196694655,0.6533407319139144,0.7058951347289835,0.5130603853548938,0.33978177369258705,0.5471876413019636,0.7596203050218511,0.7526262080195554,0.6831746263596021,0.7260239130046997,0.7398726224746195,0.7239352962048453,0.6994781813981987,0.4430252784151863,0.3198809771984806,0.5606283139734185,0.745297135818723,0.7018337431334216,0.7021996498338645,0.7535695805079801,0.7482152327698062,0.771660826930618,0.6356787855023338,0.3950410846149424,0.5111492472537,0.7982635589266702,0.9596418328733993,0.8618753125340317,0.7511312969949895,0.7935168526413547,0.86199007111492,0.9279372094812557,0.8054353925254905,0.5402269747598347,0.2413760321548049,0.0,0.11301787269116609,0.29711841612492124,0.2731263558342322,0.3294794697323548,0.5305176918071879,0.6885978086078046,0.7482722610281032,0.7405329309768958,0.6762309103474542,0.41089499420704706,0.36852243011621516,0.6277926748289231,0.7445319284679959,0.6791254681727408,0.7073529379183594,0.7645635012782033,0.7373061505891016,0.7637567190950669,0.7802310999717619,0.8052291883858205,0.7997338852958877,0.728180598799598,0.7542199712179685,0.7889122428625608,0.6322157208288459,0.601222789139487,0.7871233538243787,0.7869212176753944,0.7899355613365338,0.7121925887767313,0.5379878029031526,0.3553450808864231,0.3244052429095468,0.34078147527900576,0.24961739206049655,0.4604680200363069,0.7404086297281902,0.96064572085572,0.9613524220582119,0.864228144804565,0.8245764918885261,0.8062222595195956,0.9607558029851453,PM
0.9374653268226285,0.7460092552222855,0.39864077863509406,0.4369469815657685,0.8178347875941658,1.0,0.6926268393708686,0.48612243444968195,0.8610187564758705,0.8159999432538911,0.7056830094282445,0.7587730519449587,0.33540888085916887,0.35821027467577826,0.8347451094523768,0.8014536657850369,0.4325401019544799,0.2012704979579958,0.4931976529207107,0.7503123099393387,0.8863892794016706,0.5412745368482828,0.05279920465797305,0.3186790154841814,0.6929327027667989,0.5917879243624142,0.45386459497862974,0.489813490579571,0.5630878369592294,0.6102946885384113,0.1524226390153145,0.19847806237524956,0.692930860317889,0.7639169321131831,0.6370907839785298,0.5782756824613426,0.645121914345812,0.5296942533142803,0.07805390334690188,0.3379815115369955,0.7592995838953955,0.7549384762403077,0.6095196721746277,0.5274269797232245,0.6143763253518144,0.4741996256178269,0.021362684170009416,0.29510612093980004,0.7532452255585493,0.7784674813640771,0.6247984260689368,0.5320061721318736,0.6026991040644627,0.5608544084440297,0.08398026830774352,0.23852706181855154,0.7520310955211604,0.8379038502566005,0.7011626119485035,0.6282629629010268,0.6179949036740924,0.6069236381749485,0.12660622293706103,0.10263695827757768,0.6201354204136678,0.7990728253445734,0.6859966074192054,0.626874626924629,0.5536415729442199,0.636517268351692,0.22622080555737467,0.04340387929323297,0.540900468471079,0.7746938103298735,0.6658763435368638,0.6527267361740212,0.595615703325449,0.6802706028876502,0.332537689786228,0.10893344372413782,0.5809993251220846,0.8084594485558139,0.6936953670143868,0.6366427187961463,0.5477287306907019,0.6633298998033865,0.4278678973504899,0.02719549226177076,0.38887592621892386,0.7664759404239798,0.7189585821446336,0.6310437119847623,0.5550115473057593,0.6304469043602108,0.49409603284759873,0.02739946728769649,0.25714196926264066,0.7254106856077818,0.7969851192623496,0.6635984028518274,0.6100126299819912,0.5493879897014131,0.6611803952569715,0.2916018393447173,0.09001748190624781,0.5762681222348496,0.8315382761401264,0.7395358490316659,0.6511668475125916,0.5372252511927242,0.6156451209538436,0.46028905052474034,0.05484127987393084,0.39364236997762436,0.7758958246130065,0.7286032192432179,0.6162067066682586,0.5187306335964612,0.6201811480401975,0.35093238825255346,0.0,0.4166521091429183,0.7773816900395616,0.714760030093168,0.6419246402583298,0.5553449745496382,0.6546980708106056,0.4973057611727003,0.05010125312761682,0.3060678335302103,0.7480755189370494,0.754513938859148,0.6354742273923608,0.5549906750370455,0.623084930363548,0.5288837295023519,0.06371924628754799,0.27008978733469347,0.740137981843692,0.8532948450915967,0.5296978813849433,0.27866619194401343,0.6832709695871362,0.7191139650468976,0.677469533479107,0.7270396897462765,0.8382299300044052,0.8624865375433415,0.5040854838617368,0.2781834578248885,0.6970095661049989,0.7426849356073162,0.6928669610471019,0.7475151016613153,0.859877543036156,0.8649683929472767,0.4798218629293358,0.22874029655490702,0.648489026054925,0.6967420278604246,0.6570721741077512,0.7285009657623109,0.8746537955372866,0.8813083347380513,0.4976240801700764,0.24410520525473745,0.6668365732491393,0.7480859878291022,0.7292120208778559,0.7577898416235946,0.8629912754951747,0.9194423509460923,0.637758101419764,0.2823854922020872,0.6401037581027187,0.7333926423459491,0.6675712982683368,0.7407572231944837,0.8572355161105261,0.8477941485321985,0.4510517951011015,0.2404635502910839,0.6810675841098046,0.7319148264982438,0.6831443492250684,0.7375483623546701,0.8648244998777757,0.8028846052289866,0.3675955085430709,0.3886368458101517,0.7551530782897378,0.6732943940382117,0.7200713571363093,0.7579192137188735,0.9000161597002063,0.817986561386765,0.3810609256085109,0.44085564795267906,0.7946542405379731,0.7168716710519116,0.7453171883651866,0.7500753705016701,0.8667506846399666,0.7354016667389267,0.2817747392270742,0.44038612855793824,0.7674524822172772,0.6790590763510247,0.7361371982400162,0.7873195110337381,0.9035572365330569,0.775951066821539,0.31707129227383524,0.3999101173715873,0.7707807221949929,0.7182505224133262,0.7581641878565253,0.7938335034609589,0.932543550441308,0.8712388854615054,0.4137765870552914,0.3574199956863042,0.759228692623982,0.6875840478483695,0.6603537860226822,0.7544564459638665,0.9055903199620965,0.811222279378895,0.3580639132837895,0.3602732382239804,0.7617188099029413,0.6851492178074481,0.6689263520253426,0.7397847047128567,0.8992100813672321,0.8202410785357057,0.3737151345840011,0.45159136077450057,0.7992372316479148,0.7054064632317787,0.7163695255990219,0.7911274885086232,0.9000139555814473,0.7194532414691768,0.2991786787776354,0.5683491509664966,0.7776217323179644,0.6239426381946647,0.5851805742136809,0.5937514079768076,0.7788760595179705,0.7067213804023256,0.30897702417319906,0.544570987960006,0.9767844545470443,PM
0.9802844015525317,0.8256220117554781,0.6854294050015467,0.5712339039521186,0.45692226111634426,0.31210445041597534,0.21929059353055014,0.2473744302388372,0.3295060566031345,0.3791339700452927,0.5521325410073367,0.6577053298426482,0.6707614007291202,0.7283385614238126,0.6964812105654542,0.6018264303570208,0.4931234394817883,0.34112094289971107,0.23210892729102306,0.22354433192084167,0.2937409161559923,0.30293210874735776,0.38171619486291797,0.3851281870426475,0.28215857462726646,0.25011958400938916,0.37089339520747966,0.49963147203898883,0.5620074646616101,0.6335023864854813,0.801772600967796,0.9133934101148019,0.8503531749459555,0.6758874580345006,0.5018884036312753,0.3885931327133114,0.27609986025321775,0.23378470323214906,0.32908297811247145,0.35448718675237134,0.3862028818276677,0.5559765568179728,0.5839247080593938,0.560240690801669,0.5916998431227174,0.5157408879149322,0.3709369194418206,0.3493116831753075,0.4238103421156436,0.4015770273349558,0.4280587354386215,0.45391945370672826,0.4580458945672278,0.4962620249721915,0.4560178736399634,0.4431242616292992,0.49775954856709237,0.49850657269923915,0.5165959611250165,0.5184924738054342,0.4581752175308589,0.5065369483850294,0.543631984231766,0.4859921652775476,0.4899765300045862,0.50120679602758,0.45836030649978554,0.5108743068136463,0.43182309180754597,0.37517541687394873,0.4343827332847989,0.5355613249413308,0.48372368862298054,0.3987805625194645,0.43317477175319974,0.40110964373379177,0.4583596126233185,0.5007090163342112,0.4981403054885081,0.5344904311145664,0.5043228296727561,0.4122348583604365,0.4403025146990093,0.4659580428971425,0.4023493641331358,0.4603754399437112,0.43607600795091683,0.4378939006594822,0.4609481180416771,0.41008228078733566,0.3717674729025523,0.43630873528834135,0.45345432907388383,0.4027945884882672,0.46167193760256964,0.4501357632759889,0.5113484917601413,0.598124328351484,0.5552219325759793,0.4572545667627863,0.45169871620458113,0.4356423038690701,0.5108238043730464,0.4330716051868866,0.25047194221184177,0.2467437916410128,0.38102434339871694,0.425770985284586,0.4446161805144254,0.548300103306197,0.5535108625155215,0.4594470337775899,0.4219420619800207,0.40645252847301094,0.25262873618329795,0.2539341794415426,0.4017139540010556,0.39438491590192326,0.34149803357128417,0.4007941101298218,0.4362681355564516,0.39616518046357274,0.4097210567555778,0.33738763990287046,0.24502251708292644,0.3847850888699593,0.4300466011038363,0.375180346411077,0.44336970984783786,0.5098484261108609,0.48108954681617966,0.46371812720291794,0.42141083431905646,0.2451549873503588,0.24546261579502493,0.3935636370636201,0.38853061612720263,0.3875100119226623,0.49663327657712375,0.46489943089019736,0.36496423270786704,0.35317992568438683,0.44164074769437434,0.4009486354043864,0.27661144666985216,0.39593467786693415,0.46767745705314046,0.44786568789719305,0.497014927006199,0.5064412941465132,0.4377467231396045,0.44822960476621776,0.4642249712983104,0.3142930520171071,0.3516156210201441,0.46759955008215226,0.435640220542274,0.40369054989749875,0.467198411913304,0.4471453769366991,0.4160223348941461,0.39364302338996826,0.23821168597914233,0.25360078835735,0.38887081992148476,0.3547457921942807,0.3025772356622404,0.4204498903121773,0.5472294657565512,0.5478516923548745,0.5347897205088035,0.5450641863607785,0.3792280844793786,0.21422740388826855,0.289469000219315,0.3106242114691764,0.214023581277633,0.22475954472327286,0.33893502939645737,0.4371170389294454,0.5905008115509175,0.7737377668659408,0.8787339748516149,0.7923160625482165,0.6137100032966673,0.4124892689253874,0.4033325008250851,0.4696618051742456,0.3629616036062254,0.2323988845044539,0.2221395207422222,0.335012170063803,0.3721254590767955,0.29214116205881735,0.25511201821869445,0.14012608693034767,0.027057949706256967,0.1500279728274042,0.27682249330594455,0.4282420870683956,0.5527926753982411,0.650235437784337,0.7057676112277308,0.6528133191533111,0.629179106985782,0.5448561484557067,0.3425391153742551,0.20369561948580162,0.27198944527544844,0.22086614821612538,0.1883904528808028,0.255630771630596,0.4017592065998574,0.5259222199230521,0.6349960265567866,0.7650822563715615,0.9240014888524583,0.9622184508645276,0.7977179182223112,0.6943773327694963,0.7997802834345039,0.7564235125951259,0.5667598271978785,0.37970444441034745,0.29955492514594706,0.3530665635090837,0.300946361349277,0.17973214462477138,0.16131463180188677,0.14111126884694125,0.0,0.03732807881906913,0.2195686301996841,0.35087452637374583,0.358133905450874,0.3523536572859899,0.40344001920520167,0.41200456333240165,0.4207958731905712,0.3768944650212862,0.41151781395631004,0.3278833649825059,0.20281051493404867,0.18405908804320814,0.19581137973816987,0.1967798085246275,0.30245972620395056,0.38897125720982917,0.33703616548006465,0.3799025800239084,0.5586339133938911,0.7525656378203419,0.8574842989210555,0.8913193340771487,0.9999999999999999,PM
0.9212042159066565,0.5795170747369554,0.6823427608598593,0.8990053291391389,0.8642180842691314,0.8957497699885044,0.8864133705137593,0.8506152725745095,0.8912888841102768,0.9611752717462432,0.7939602665642478,0.5227745392128873,0.7401022351244633,0.694207811656967,0.2946167413318135,0.014829505465877357,0.26614652161169583,0.6607175166754184,0.8800608428102978,0.8259136829536251,0.7711940855507531,0.8200397175975058,0.8241366124741809,0.7902776664135964,0.8136918056356413,0.5520159644837728,0.13282024671695658,0.3005036529428764,0.761717143250348,0.9363142982066011,0.8380993755902688,0.8105192973307118,0.8350702874778673,0.8194544148565654,0.760368626358368,0.738367183337802,0.3471695697054962,0.019718795013674573,0.33941642307497877,0.7736203183534469,0.878667371638477,0.7880316482110983,0.8254106559534486,0.8500200935327893,0.8156162085721976,0.7599182674107801,0.6834806941243836,0.24688380787645792,0.009165679192729925,0.39609736250387684,0.7913093384306236,0.8327158629754239,0.7172358369191456,0.7697012197128643,0.8071998404617826,0.7750232000930066,0.757282226216903,0.6230785423181175,0.16404258432894792,0.08884265634501065,0.5344408723929361,0.8764947318829144,0.8802695773601017,0.8077285116453492,0.8921434344253916,0.888642449812207,0.8400376423208598,0.7817207050487358,0.6829213764870348,0.25651254900310927,0.11978018686155734,0.5441594946738468,0.8550878450470281,0.8496461004953875,0.7638643131012457,0.8197912790688426,0.8155301160229724,0.7752401332405872,0.7369261520526891,0.6772739985914069,0.2330136607634885,0.01620191990846065,0.41546647427630745,0.8165274606846973,0.865472155878726,0.7581831023425303,0.7789870257715288,0.7954719519668338,0.7776074167964606,0.7453753896034159,0.6209405517970259,0.16501643720313153,0.08091469260236583,0.5272185462204919,0.8614485904264022,0.8661193606007216,0.8023192507217671,0.8361179508648924,0.8362367589618627,0.7892361294189332,0.7680475416615318,0.4561006659890898,0.05531672957248457,0.26930024397055563,0.7251115864529796,0.89174126054214,0.7998496713531722,0.786091395913648,0.8447091689501667,0.8442055102830892,0.7903597719329962,0.7923978784701373,0.5064388497498165,0.09985455304575486,0.30273164843004396,0.7556382324131059,0.9105500349519327,0.8048612438007305,0.7708789943218921,0.8201335866772119,0.8202018778966611,0.7632805295259244,0.7546517527994281,0.4033163654769192,0.061679251981198835,0.36331608297176254,0.7916818621333408,0.8884586051767625,0.7832999550246389,0.8005651593778946,0.8243317892348774,0.8075816853601694,0.7463523262191427,0.7172697186615955,0.32522562348036255,0.0,0.3173856960272545,0.7465631999822002,0.8826471416290107,0.7966934098990142,0.7947903170801056,0.83611574410254,0.8200354225020874,0.7657636682146576,0.7118359914574839,0.294802558079138,0.023181524799062547,0.3918274798237884,0.8139968365930854,0.9442016315441712,0.9453124027902478,0.6799622562033001,0.6295269709917037,0.8598121408304888,0.8484954210600559,0.8877516748220753,0.891941754607291,0.8488017389611868,0.8941673356045072,0.9423558664010541,0.7225251612244947,0.5192944841810081,0.8034218321724347,0.8273743056214453,0.8602646048912179,0.8860288858790666,0.867464759562182,0.8424957299267444,0.9443211701244127,0.904841032472536,0.5989232166578895,0.6831306224601277,0.8702403172916147,0.8380486041933479,0.8794469752146239,0.8753659469524937,0.8232289037580438,0.8976370380264358,0.9754718632827482,0.7801569543336679,0.5778838405916602,0.8549942022339274,0.8695857576931312,0.9008472164547183,0.9110919543476039,0.8737842052139881,0.8506518832507171,0.9461070177563053,0.8586789913338313,0.5370445589066231,0.6735337530360397,0.8552259636162431,0.8731956214100687,0.9003117594601546,0.8952687959480192,0.8681912528646154,0.9325141857583334,0.9372237759665452,0.666924536946599,0.5414634589542078,0.8217943400794332,0.8120593649179013,0.8515686437395087,0.8535095131125527,0.8299000559613807,0.8576452109284625,0.9495170193550915,0.8202621034972024,0.5471727829158586,0.7701467914890179,0.8291486320346872,0.8364879472126017,0.873687414529758,0.8918698263908689,0.8348615911453265,0.9063054194489255,0.9425629920823293,0.7498352384638358,0.5321050387703283,0.8082898967121941,0.8735719649619202,0.9227393302785747,0.9511031276923898,0.9571309248538284,0.8848966994273564,0.9595558517414791,0.9649740370247608,0.6970563801591934,0.504349241841842,0.8047198256617776,0.8332589168338265,0.8528556428128633,0.8612447091522557,0.8272252835501819,0.7934016936506434,0.9066881673266818,0.8525268664361341,0.592393010692692,0.7601040226946809,0.8422576226677454,0.8742724917510594,0.901284602510537,0.9118492987736602,0.8562909003414418,0.9220741701746995,0.9129432982562062,0.6267157734064601,0.6151580806416561,0.8685661374819773,0.8344700430388952,0.881585009535836,0.8957920950242793,0.8755897016883383,0.8964751050043662,1.0,PM
0.9751742422108474,0.6880586443316901,0.764602530059387,0.8150825824901404,0.8217828237142419,0.8727213627280088,0.7204655334645769,0.7340549925591238,0.7363473827323976,0.8947700502046567,0.6673288582667145,0.6714956568192956,0.8074744681615584,0.8088264044378368,0.8384425446779256,0.6957533662917808,0.6843469431198241,0.6120876759454199,0.8549102620985276,0.735370114235816,0.5880162293657323,0.7828830780684961,0.830355782986266,0.9213963102433511,0.7739501882565896,0.6891056451180395,0.6010306288868228,0.7621964478614793,0.7840463651009575,0.5856389859994953,0.7319912144207184,0.7542242155668002,0.8123174289669666,0.7552724060101528,0.6945273032351751,0.6651966878230526,0.8644709139453743,0.7017581089544205,0.5806935485118112,0.7372701534352757,0.8105660751915131,0.9336955389798827,0.7944978199386012,0.6931315580768889,0.6751268306903326,0.8795480113136476,0.7495707162858296,0.5659285512393466,0.7221933345692486,0.7368731452600104,0.783642761143903,0.7626932161811468,0.6495046596536929,0.6276916796776351,0.7012745709485695,0.7296862323139894,0.4861893749063859,0.6253910957453872,0.7006183624761806,0.8097077796041132,0.7963810334731827,0.817757591092823,0.7573183045178156,0.7487876093029198,0.9620445612881587,0.7357105955246253,0.6714043948337736,0.8203355919794744,0.7840498885049385,0.7818151923312939,0.7384288411143727,0.7055240105139857,0.644111349678536,0.9067617684538307,0.7298729979489798,0.5461261024383868,0.7347757142274243,0.8569414077962958,1.0000000000000004,0.9468701060078848,0.6532546657866067,0.481568228673392,0.4554539806614861,0.6994278462214285,0.49636789361773515,0.5295055845798711,0.6899161670300371,0.736833729745269,0.7595817352588994,0.625970664248122,0.6403151528978417,0.5332387570165,0.5656841534456221,0.6581173375011105,0.5858447675223224,0.46211364207378614,0.28986176193149227,0.5073283247987712,0.2478299614706878,0.0,0.320057644562302,0.4610410218754093,0.7821113054216253,0.9036369335288139,0.769409136955387,0.6350591702602499,0.41587242511186506,0.5471974597267346,0.5710224552001408,0.25071763665014934,0.5174365932087466,0.6222915182015485,0.6692222197342854,0.6576994255104975,0.701417690977296,0.6013964525500932,0.4559638131289896,0.6973712670433052,0.4464403620371842,0.3111744306248294,0.6775432651307303,0.6818197871818841,0.6953372659211676,0.6630956520260343,0.5553650068064435,0.4402042124033638,0.36979784868491494,0.5430221555704313,0.2428836257606699,0.40708218960563913,0.5271121350001957,0.5863444796407054,0.668626220016959,0.6266978469003104,0.600279923362129,0.40463904141899887,0.5884518098999241,0.46781744764284516,0.27774649651783445,0.5499392260512614,0.5951943973719591,0.7818270580919195,0.7701899484400032,0.6665883533651953,0.5489235055340802,0.4155845539735439,0.6310366083213195,0.36094047141365326,0.3636516223797539,0.5772856488475169,0.6318028633710719,0.7140576637062903,0.6550474782455566,0.635422595473321,0.43665942949582126,0.5404338824953219,0.5416706254630452,0.18928563390301534,0.4487842374903934,0.5747052985449232,0.7303512343052683,0.7916025291923967,0.6934990722235135,0.5889767781457058,0.41153791956260344,0.631835838975416,0.3967923624485108,0.19461710677394528,0.5162498071036858,0.5659898392426914,0.690246725588815,0.6976009938147567,0.6891952600586122,0.5516285977967961,0.45601120506652393,0.6602111840271854,0.39877633567441384,0.413247600887908,0.5854550014542808,0.6407858180075499,0.7448936435779463,0.6829842615083215,0.6966260223543244,0.5253213152858747,0.6250406714545655,0.6959748245891584,0.4167331049552616,0.4764255142493776,0.47492953002575655,0.6629265054264817,0.6627724569277782,0.6024944018625873,0.5875998667713884,0.4001570036348041,0.5800275386120481,0.46857214231591415,0.20377761240657133,0.5057339282040973,0.5851834018722832,0.7640467821508952,0.7464250882041905,0.6657026184744876,0.5987619647929998,0.4496507297363128,0.651805628032025,0.41733329479851866,0.2574908897690791,0.5360009420264982,0.5631896036617854,0.6888278346509771,0.6457672622676642,0.6495402328395032,0.5944735511233459,0.44911009374630284,0.7046689405252757,0.46011550282042446,0.24963385994337806,0.5623652095478526,0.5951459683916114,0.7235679208843049,0.6913552157684353,0.7593210554544938,0.8536255092815752,0.7328798724480468,0.7234674870221993,0.632180451213002,0.8442405681669838,0.8573884948951873,0.6066660493333411,0.7396319465286187,0.7573467146831363,0.7750996128802394,0.7840101432856574,0.6656171013873773,0.6570250172683272,0.7309306474526469,0.8518954063043931,0.6074835159675036,0.6965814941013431,0.7683287724393502,0.8181811338900178,0.9284306603148837,0.7651736092639392,0.6831489526363579,0.6369695779500781,0.8426468827148605,0.6872224408922398,0.5632738450420964,0.7230477832198163,0.7148617216504172,0.7824066911365857,0.7872574526330953,0.5954082087614787,0.6579277365981628,0.8759590266632356,PM
0.9631191803539885,0.48161155543254575,0.26915994067848237,0.2566331754841693,0.24919939465025776,0.24660361731966862,0.23814213790837657,0.374472887710231,0.4313080510598657,0.7452721178659365,0.982096807166752,0.6008872633010705,0.2853291149233699,0.23199498234645688,0.2153794739015944,0.23620933526680377,0.1858029624291242,0.2521956361336781,0.3409078385508231,0.42172067272646085,0.8069582235147443,0.816541879149491,0.35409721093331603,0.18631011817635823,0.1566881967557241,0.19081071216004375,0.21087136305379728,0.21045393328087014,0.31853374711970783,0.39415686583733445,0.7591978199886462,0.9898013008352291,0.5763823652444033,0.21306095033317307,0.1679756797376908,0.12352419575612261,0.1843521917868065,0.1765577207766662,0.18464344038068647,0.3294634845722033,0.4191360252116483,0.7804904740476828,0.9851400379194426,0.5696954107996475,0.28270066074919464,0.239296319805824,0.23154795625897462,0.2852176731059797,0.27131159929829085,0.37181337560689487,0.4266438135517787,0.6459000473824159,0.9374591096152578,0.6047385770632943,0.28960404882109003,0.23191562207304273,0.17870493375408314,0.2104895306797241,0.2262577915361068,0.21364580120228016,0.2684837206773696,0.40035713581718335,0.8202986605072042,0.8897281020555585,0.4287067413271819,0.2456670633601057,0.22157424339391651,0.2253719754130903,0.23059936709278261,0.2106939431044781,0.30151218694224813,0.35580396265555736,0.6941115624630472,0.9198958425436699,0.5219250747112287,0.2517630777305979,0.2175316902596589,0.2441177037332407,0.29323292158599834,0.2916252718566956,0.37729271498832606,0.43559076356109694,0.655349333935638,0.9786984079993508,0.6767781605188352,0.31550013358820284,0.2437439741444929,0.20802530026981758,0.22496006954964187,0.1742839751325871,0.2288540193575792,0.34695811698573387,0.30185483856888107,0.234061466150711,0.1005249657666778,0.1301357049951779,0.14477947903516686,0.12471853401325106,0.1575956039002775,0.0949279514199981,0.4400766011151185,0.5472235478727407,0.3610219293924528,0.3107716815921844,0.2156233838682744,0.22259710349743722,0.17155798201421169,0.12724631583061852,0.11563196817986521,0.06036128084976111,0.4197949146274027,0.4396310816717186,0.2513255533897665,0.20372600647589323,0.13587772958434297,0.17200856519843288,0.13929309004249024,0.15583378577755758,0.06504973363490052,0.06662066397654787,0.4139854558502538,0.3116221236304133,0.19480010589610464,0.1365220233545732,0.1511024005524546,0.13579032747834008,0.08818931058676549,0.12757105320057605,0.11370810753006833,0.21374425847388423,0.5644376834420317,0.4211710758762113,0.33974304520304033,0.2551698388568542,0.19625021006001342,0.2194465150740088,0.15888775836292668,0.15566084767375443,0.11432477030812693,0.14938257127338783,0.5483140432329212,0.45392273040927655,0.29066160613069325,0.16909812144511793,0.0873366612897244,0.12241429886346777,0.06206645312488046,0.0706977781184488,0.01485609740917937,0.16470466305992115,0.5523693365704738,0.38524139366350996,0.26248029808025297,0.1660664314378102,0.13107577760120348,0.14553087527950836,0.07855090426699851,0.09400001619471876,0.0,0.1199184525300816,0.45711170672398627,0.30936835934908613,0.25232979912668796,0.1274841744216264,0.1345896349365261,0.17183571995835756,0.12871063910356995,0.16120935737678455,0.10214320726103443,0.23386480456366687,0.5489158384068586,0.3798435853047337,0.309363109868539,0.17717717116120824,0.16935816596041509,0.17673731490156275,0.16278976955733526,0.16182597381304253,0.0764933605829965,0.4301461614597071,0.5790551317201436,0.3401130674519086,0.2559575265267964,0.10489514136713884,0.10688483480820699,0.09623835760743793,0.10420840531376108,0.14313184707764304,0.059069913255326956,0.4312604625198073,0.6269054755154904,0.35096605703993733,0.2807962506399302,0.13740071216737793,0.12069084649982953,0.1417708584819075,0.10067285387469171,0.15025255685341188,0.09472948300529982,0.22155916658674135,0.6128386671018369,0.46515419477443887,0.33929077429203414,0.22639751108207706,0.12935885707625916,0.15250999253721398,0.1083355911759134,0.10833591150224153,0.06868832189392116,0.046130470461966055,0.44456501964778106,0.42983754616804903,0.2799961501550112,0.20230069279088436,0.10754031666656738,0.13650579248851846,0.11836407086729794,0.1657191182681661,0.20803378849508514,0.18017973413330912,0.23998241580563162,0.3513386411096233,0.4705289291035206,0.8741315418209843,0.8395631679482158,0.36344612924279973,0.2043917768153789,0.16897183211406475,0.20407332331303163,0.2255922356588873,0.2120536343867041,0.35406961556915784,0.4361949625754744,0.7041339240713871,0.9360496345224281,0.5666242995307136,0.2794316068939757,0.20215085098479157,0.20091410613675897,0.2121946242084416,0.1824645908218554,0.30119219471941605,0.3809546935615242,0.6411274619840941,1.0,0.7234675540874931,0.30391337864909884,0.2380692732918197,0.16949494932709497,0.1761638241873409,0.15861329872201058,0.2389519501290569,0.36779732648190633,0.5274275002058308,0.9465103411447164,PM
0.9436337072462093,0.5844377150317928,0.37737929258451075,0.14033619289541344,0.0,0.029353190953423258,0.0723547201225947,0.4191823740308491,0.6773748682819929,0.6268164615005998,0.420773096797193,0.30895935494291926,0.3695407957593284,0.3226224090023617,0.36996190004480445,0.6031933558418374,0.5131626582856317,0.36201327223778357,0.3176872793072216,0.33749102304714773,0.3383686424982617,0.3382060272357683,0.5488557544222061,0.5511375885710423,0.40146420867816124,0.35128010302377577,0.3649137594634704,0.40870501885430066,0.3332999493114297,0.47501266150281696,0.6250387237486144,0.4492434148351867,0.3573736626482127,0.3150475998197466,0.3755106896073266,0.3030559683009857,0.41559270733831655,0.5622943959105302,0.41574325569963655,0.3743057693185836,0.35371463063423203,0.39670689354600785,0.32119094622175215,0.38961185798425024,0.5832922994616685,0.46770009994584205,0.3826327523542252,0.3517206511203548,0.39503914403184703,0.3695958260385561,0.30174681170639284,0.46325829475586344,0.6057472199053153,0.4308305441838276,0.34938570776301425,0.3144120716655392,0.3783770076028148,0.3347707288698616,0.4159722178825014,0.6113930290187417,0.47554158580799166,0.3931673921236212,0.36293667928632933,0.3946582944006254,0.3549044134938675,0.34724342651595475,0.5246514544221896,0.5400422870781942,0.3832252657879831,0.3340230540533784,0.3605955636790852,0.35188334886037476,0.2773886017698839,0.4777213083358465,0.5605409404493638,0.4087507369317911,0.3623478680354211,0.3901369623211419,0.41047638935629127,0.32852386686274526,0.5036744148343875,0.6214912490242468,0.41891167339933544,0.355199372252645,0.37778207712251,0.36842079254145466,0.2897460730894661,0.4714282627908304,0.6152033884055097,0.4582435882651503,0.4135470323523007,0.4221898844312104,0.4232069030546093,0.32539095186044253,0.4437093105763279,0.5413029760373993,0.38839684831387267,0.31869532789441557,0.31967132018368627,0.36588980975720276,0.29854349648237344,0.4553195479838279,0.614957576876209,0.4292946623281204,0.3723001229395422,0.36032378078606575,0.39796730105947864,0.3053754179821331,0.41167978455125365,0.5632588443936211,0.4410664818058634,0.40829233769223316,0.37374642416837034,0.42721944223801644,0.3649261692385335,0.4138059375068286,0.5771207364421169,0.4554950412654679,0.3887604060339447,0.3442461908782799,0.3794992478411623,0.3102216066256167,0.4188269182579223,0.5749747415458826,0.4538112629438298,0.37650285853619225,0.3971044130721939,0.49821273731226823,0.7140247948208445,0.8431490781677455,0.676178612522834,0.44158083339853293,0.4380773124726729,0.4546575039059446,0.43453298407296526,0.5113814746461691,0.7183464996344524,0.830812140403296,0.5624285254699828,0.45682541554711653,0.5194813408023458,0.4677040384227129,0.5060500894622657,0.6253594186734386,0.8815479740763763,0.6708984159949898,0.4300046020285002,0.4772295920619056,0.46759895770496085,0.43210431955863227,0.5061543767276784,0.7754806777954348,0.8044926250105959,0.508743696383875,0.40778092772188357,0.4692557147069021,0.40920511936657444,0.44674328001141683,0.5817882546010846,0.830449515533104,0.6581866357639647,0.44812253209632,0.504909456548619,0.5326721181201401,0.5058737080647484,0.539296212686065,0.7051534519732812,0.9075898213070421,0.6349017237854757,0.408576347417124,0.46018345720600484,0.4720554304038669,0.4502892659126525,0.5359497050139659,0.8451044847536635,0.8066500553973168,0.5075594881248646,0.46628086273350977,0.5255164922609494,0.4634922202749756,0.4910844655626785,0.5974278739926988,0.8548859870114551,0.6625217773648977,0.4183976344537941,0.4441849641729152,0.4698653174632712,0.4320897925233269,0.5495717500338326,0.5625431917222636,0.8061715620169436,0.8224451512188926,0.6194745905582888,0.4436093703072874,0.485133896475753,0.49677366397563594,0.460290237820697,0.5105333575789528,0.7657839158863293,0.8385857198547981,0.5332153169986773,0.4425215690954527,0.48046033721273806,0.4194218425897094,0.47516829792580983,0.5492706543359498,0.7629291296971639,0.8647391322433089,0.5744854567530662,0.4208030431045904,0.5024030887254192,0.485450014683809,0.45814219965228054,0.5129678673479723,0.6890444107126061,0.8605257410168115,0.6669899810490332,0.457217981995067,0.487867427672819,0.4754914504007366,0.446016626257689,0.5085647460541391,0.7301011648004554,0.8325928307505222,0.5506373122071748,0.3970659228345981,0.48220931993677807,0.4554589156468718,0.434693383669734,0.5122906100944671,0.7354208148483456,0.8581980975628363,0.5812612848716001,0.45959483510219323,0.5417059291567026,0.5377760578864592,0.46928646888028736,0.5209539493453685,0.7075240000013454,0.8646927115345382,0.6119389226587577,0.4341213767559702,0.47796867704451174,0.4527065743095444,0.44356504202161684,0.5235957431086078,0.7200818495478933,0.7623077175089965,0.5032829976014934,0.4387562307777664,0.4754850376203392,0.4140611775371874,0.5060386971308102,0.716980441321041,1.0,PM
0.9999999999999998,0.7945640144159205,0.450898862927576,0.23272693356033342,0.4861146933448823,0.8477795200351799,0.9693807347917403,0.9456250483620954,0.915990889873983,0.8515578730798572,0.8753423526643702,0.732193730742497,0.4557279169836587,0.6081219760596073,0.8734513226603702,0.8972922070975164,0.844180553419337,0.8753333371519076,0.7911901784616155,0.4999695913037851,0.53826734296383,0.8670866775760655,0.9746838561702564,0.9413606366057092,0.8988630433559721,0.9272910226982867,0.7217149494618482,0.5727161647285626,0.8443054285504001,0.9520758744496001,0.9018240148256407,0.8435685282518892,0.8570694628504039,0.8091046783392009,0.5619939319718956,0.3271584886521785,0.5536822071162522,0.8217685233016581,0.8417135265054339,0.810602792962156,0.6405850593906832,0.26780219620497286,0.0,0.21877638343193356,0.5880269815849684,0.7905286798534936,0.8028362935898197,0.8182629649734217,0.8829872765858355,0.8810502385141759,0.6168819713881801,0.24229757979622008,0.1760199477464936,0.5228033180388616,0.8360497510701874,0.8750089865004542,0.8727415322602541,0.9276246311185394,0.7742081434212496,0.40752688437688095,0.11643298137739522,0.30755114599343286,0.6742354955053422,0.8403543966294591,0.794689772855868,0.8523126111085915,0.8022354018728337,0.5029205028359371,0.1342660355491171,0.11461769350938011,0.46623172788425254,0.7692645808230654,0.8218925597171245,0.8320383610256419,0.8979414728931121,0.9180126692049242,0.8538525373872967,0.5306608500496091,0.15919697807893707,0.03270401891638608,0.34255269086908996,0.6945759338282318,0.938685975822195,0.9307442013359035,0.8969976666527915,0.9160415900523136,0.8155998348842703,0.4780233899789686,0.13871724205699332,0.19447713031662078,0.5672586288709558,0.8485325329259845,0.8379454565443856,0.8335299231500826,0.8674773791779911,0.8339504672448697,0.5461998365887515,0.1717658793914944,0.1200204001911031,0.4717396582369732,0.7871821569844055,0.8461029735417485,0.8456107107091746,0.8537409040783588,0.6402081130177413,0.25862762116569477,0.05473763863717357,0.3331867954870626,0.6953314995625626,0.8564491183539453,0.8102085123417289,0.8908901713183381,0.9181134632978276,0.757926106777727,0.38480899630419013,0.10131594179447495,0.2762346084837291,0.6544110149950437,0.8903004235186236,0.8401429907638871,0.8594064417582505,0.8307292175625338,0.5289222338131045,0.1666225772302588,0.18308825074916507,0.5431093894440202,0.821625003564527,0.8274474243476688,0.848621879508008,0.878503520613374,0.8121346177095536,0.492273126534617,0.13269633127222985,0.15793404636522496,0.5280252616999741,0.8283094120608265,0.8504631121946893,0.8304599960124879,0.8863039278423317,0.8952005577849067,0.6422988997446704,0.26630076177250256,0.17793580421393412,0.5170955982015171,0.838610075667567,0.8894904656709552,0.8792513881395208,0.8867072674068497,0.6862122649291926,0.3082017365067618,0.1053108884080719,0.38672185248105145,0.7456490926737223,0.8487484826673877,0.7912157040960583,0.8498352910441132,0.8681106950347921,0.8489029938596642,0.5907542127605556,0.21104756866429725,0.09590313588578242,0.4275051488010945,0.7706720264184055,0.8535854328255805,0.8183107157472,0.8737637467444932,0.7046195832695639,0.32655748437170223,0.07907717447724649,0.323014344698693,0.6949293821176015,0.8662308765084816,0.8307516874577505,0.9039377953722258,0.8273965969787285,0.7519130063465811,0.94444351834133,0.940182004081539,0.8739870841474267,0.902823335032676,0.7324360245834038,0.405372407710844,0.45572313623864863,0.804855952548535,0.929256181692595,0.8610038678677123,0.8885744018400814,0.856272598216016,0.5825390771320229,0.5832081948710446,0.86118850556275,0.9106899608234296,0.8961892467269985,0.8591724348160257,0.8624324715486362,0.8768250731424418,0.6253566243166186,0.5852718032388748,0.8784963200963827,0.9409534947260898,0.9148027857990171,0.9333497893090617,0.8608875293291169,0.572153131071774,0.6037985110735333,0.9091631613024769,0.95449472295417,0.9075864795181459,0.8607883078627663,0.911974161512819,0.8181728227077982,0.49394887202518584,0.4083562169297558,0.7242140318541246,0.9149290035476325,0.91099698045913,0.8741704264534926,0.8807837073863432,0.8138075093342132,0.5203028089281483,0.5264383553703265,0.8404806857582177,0.9256495782711269,0.8733722603462963,0.9303138758545444,0.8454647818577536,0.5778748054471023,0.6848450874535121,0.9460858307251814,0.9537692397170947,0.9038922696161644,0.8590670669937894,0.8906251701312509,0.6616329797658538,0.4211849932702804,0.6430733552480867,0.8887314034371783,0.894643018646401,0.8763925896352911,0.8870143051871329,0.69958698362357,0.39240783394395357,0.5007930027434717,0.8326662356922607,0.9155752005457203,0.8945856883902465,0.8573035906816513,0.9056335367206465,0.8160259971815265,0.5382057528470847,0.6471885366019832,0.91960703949855,0.9577700233904791,0.9352270229122062,0.956378999976603,PM
0.9823305096520438,0.7799875659503184,0.8293251695281421,0.7918583978709699,0.8029338387866765,0.9167613427972214,0.7075749414385482,0.8403147240535218,0.932878499460601,0.8083278742378481,0.8357637494774361,0.7900000300433834,0.8406823460312416,0.9017862645723151,0.7126851646856696,0.8864876070828855,0.929107375559576,0.7559430416802715,0.7838059266076596,0.7371526008993943,0.8171646314710697,0.7967709563757563,0.7284923428691323,1.0000000000000004,0.8456019865372597,0.8969688307875994,0.8601323673828198,0.8554601960831012,0.8562235193384731,0.5782284216466129,0.8362725090267431,0.8394927003909411,0.758760403404581,0.7745358758967522,0.7500394963056611,0.8680427210865047,0.7870526491269207,0.8453866868307922,0.9219598602527381,0.7418511578206766,0.8074914750646038,0.7767630875361173,0.8399059226539163,0.895927984868758,0.6189121062023544,0.847365243294965,0.8488993715619588,0.7867861910060925,0.7471768901368416,0.7464369831502373,0.8843893266773262,0.6894269834266904,0.7348710987722891,0.8855123495983794,0.7537203052306265,0.7885988948794416,0.7373257358349594,0.8502762127181192,0.8194831852425213,0.5738367840056484,0.9161464620074731,0.839894861900389,0.6475755255466091,0.736435635905277,0.32171719369428464,0.0,0.13684304610499165,0.3953586868876009,0.6869530044165164,0.5826189232591132,0.5557757863843347,0.5724232475517885,0.5241247864413436,0.6810246831114726,0.3192698619769394,0.3887233643385044,0.6411158797331975,0.5307641339663043,0.5267247378182645,0.5771763792080193,0.5950894423872826,0.7071587956081928,0.2578370052863366,0.38446676474923924,0.6907158957328279,0.5820345389389474,0.5918262356254851,0.5703514184968315,0.6067443517967415,0.6251915117856544,0.26800785864793175,0.5621348429296251,0.6303677239073275,0.5245381804779528,0.5776351927594354,0.5656056481607501,0.621374373609433,0.3850550959176555,0.13594943871075493,0.5696911671289988,0.6718025836632964,0.6227782523922416,0.6840754277215217,0.6276139162055392,0.7173745640155786,0.3326045615372659,0.228796587184255,0.6068209929296415,0.5662495044147269,0.5456522724798538,0.5830691431711608,0.5568190046931916,0.7216681001830332,0.37763756363959633,0.39999376112517027,0.6621616255813385,0.5909283746400398,0.6043113675461145,0.6081985216403454,0.649958938456606,0.6352454041001176,0.18390523247143786,0.49451676385333077,0.6993434116355801,0.5723020612035903,0.6134561621531147,0.5991417545647981,0.5712419055303908,0.7429236145491447,0.36790226479564003,0.47875290613128385,0.6397302472075101,0.5091958653301898,0.5613799314970751,0.5761697580876333,0.5338534318014236,0.645057733313422,0.22857712934955243,0.35848211909486727,0.6093865963634215,0.4761314431450936,0.526219842365772,0.5718549832906521,0.43712532176754504,0.6226137609936364,0.2832091084266648,0.16002288808174825,0.6379672200690534,0.7120994231698217,0.6133898459056417,0.667494477650735,0.6303136440656685,0.7393082296105185,0.51882923545989,0.2499867334285053,0.6332772046792732,0.6245006997491283,0.49550045744127225,0.5482649032129734,0.5546734775412023,0.6534015079436712,0.6142416786160556,0.35195037316849254,0.6420101652494323,0.619753280223188,0.5714359780958826,0.6414416890022241,0.5888620845751431,0.6007473939405661,0.45340798075565525,0.1040801143017478,0.5229740670453857,0.650141206976155,0.5723871227034527,0.6029373348813385,0.5591062710678028,0.6446220666616167,0.6224462137888671,0.19755406703653522,0.5127707253550491,0.6223025315480384,0.552663346351931,0.6170589000208397,0.5643123633913567,0.6580640376825535,0.5928098944547031,0.36226144794084547,0.5688649809313358,0.5395039014498275,0.5428331855467823,0.6201529585872656,0.5670881357673423,0.7978393727911999,0.8901084725161241,0.7924094262032191,0.8429089122068159,0.7452843816114609,0.7588224668382124,0.7998391191858727,0.6064838862678865,0.8838851102250271,0.8942288580089497,0.7882334149700418,0.8309110007537117,0.7673474780535012,0.8369902341290278,0.8023904878272572,0.7398027748186204,0.9814365793933866,0.8080409227541714,0.814973680664377,0.8313988063236413,0.8395939924061033,0.9260192950699531,0.701083959643356,0.5199015958907802,0.8744209939315453,0.7767888626001862,0.8564168090093003,0.8280162481220832,0.7812093474237334,0.8904709134745974,0.7572815406543829,0.8675846229410502,0.9178912074859737,0.7967967186989466,0.7848924833448492,0.7291731102636967,0.7984570284219132,0.9286148832940122,0.6730769538860164,0.7693352027628939,0.9717176253211366,0.8646890381111443,0.8753338403696964,0.8209177850372966,0.9499282209015969,0.9278090455733445,0.6752159593384688,0.9141243158580044,0.7338055798958032,0.6643854254788568,0.8128340755699353,0.6918371686378859,0.7500329152357721,0.8285643901296473,0.5645305770723303,0.7567400621691216,0.8319661160050384,0.7481117420006718,0.7701448588192723,0.7056275139979746,0.8577634521148529,0.8675601854916963,0.8737598898748691,PM
1.0,0.8347231596519133,0.5750590666841813,0.5322584638626293,0.6576131019739893,0.62311536058963,0.6388439548792184,0.6205591289574852,0.5867658748295352,0.5646956793279441,0.5820561954729206,0.6415701231211126,0.6377477599739678,0.6445297280093505,0.519133586768477,0.3830515588814416,0.5753446444108281,0.6601057448996865,0.6445272122537777,0.5935259487357611,0.5807398365028966,0.6481430536348309,0.6502067153875886,0.5899655040183394,0.6388965087237906,0.7463291278099584,0.7605457579391808,0.7397271419820499,0.6036676579380349,0.5142490211862087,0.604426236142551,0.6698911797378853,0.6291288047203625,0.6245757260701561,0.5698174032662418,0.5789282289476962,0.641966578254058,0.6136665537856474,0.5781283918869335,0.44248207998142997,0.3887283378893245,0.5396787249603396,0.5652837931204888,0.6180947026249091,0.6045845540169594,0.5642242798567771,0.5366629691780029,0.5566664018045908,0.6338751679439172,0.6716863289703872,0.7315556791788236,0.7524506128263977,0.5446963232550179,0.5947640438976856,0.7099254174521517,0.6972590079415903,0.7157287166791084,0.6917168503638824,0.703258759661328,0.6465342045604037,0.586867514502591,0.6162065125191569,0.7088999326204304,0.7354506095683226,0.7107090069830302,0.600840778206948,0.3764217807246282,0.45869400577140684,0.5726894901179169,0.571938508964204,0.5808903515958876,0.5487343979612134,0.5372604015152773,0.568306869426535,0.6162848320058312,0.5722134090165949,0.5279176471569724,0.3575502538601829,0.44467424871060013,0.5665765591074634,0.5846889277827141,0.6052094597867486,0.6156590046348733,0.6440534541961074,0.673857930577336,0.6715263541201675,0.6498907962093665,0.7004607275105257,0.7405644278197854,0.7414000061614532,0.7332483474078924,0.5534567780294206,0.5897431279997751,0.7392027374034766,0.738710397737893,0.7628772206457666,0.6607095935658847,0.63642497464298,0.463437906199446,0.18728527644485204,0.30020906973912176,0.5897134079217734,0.6358698776737786,0.6332585915042301,0.5965151539466502,0.5439152923401416,0.5628284890196098,0.5726287116711997,0.5497502097852296,0.5145876206548126,0.5008738689251704,0.47562818035275356,0.45481918344804795,0.27717982415047127,0.01702298243951894,0.22699713967096802,0.4483837364336001,0.4822656585690641,0.5123755591662769,0.4514527734033047,0.43871476389847874,0.46112536705541407,0.476616452720521,0.4545876555450432,0.403186711722316,0.11633020555490114,0.2263624993015858,0.5329968701406846,0.6040209743036931,0.6259183124479768,0.539743401264603,0.47416388136087706,0.46100958019046745,0.580014813803531,0.5919332483068951,0.5873190643369255,0.6088646606170367,0.5838523354679106,0.5829953098540916,0.29460301481067575,0.23799665605698594,0.5313819921211413,0.6442562705160699,0.5709251599516332,0.5567902429772555,0.46808917783567905,0.444021118372957,0.4605914332551708,0.5052003501450186,0.5211083647296713,0.4574170583973842,0.3790683600921594,0.0438531065252703,0.13473131114322,0.40861037278235735,0.4850278830632071,0.5277383981058317,0.5242249925333176,0.48253278573721525,0.4738599264831982,0.5289346148563334,0.5297648868136826,0.5598810397826339,0.405954468262836,0.17327562074878333,0.3778595557356015,0.6152551923417446,0.6427249203272463,0.6561531713173756,0.5638608046496079,0.49511859502230715,0.5198979292665706,0.5553054418547863,0.4931509080798784,0.46447618768630017,0.513240474215185,0.543449260603261,0.4991469643709707,0.1791321683007605,0.13851215808389172,0.4135120251877695,0.5197560984781182,0.5200514647290668,0.5432411413923162,0.49230126020647313,0.4645732558638591,0.470691894626722,0.5031205395904652,0.5275436803966276,0.5288445841722713,0.5279525338230528,0.4672255369796172,0.15535331138700625,0.3024299342653056,0.6412396088885521,0.8476315816104729,0.7918612090228794,0.5744845443885067,0.5991928021319364,0.574799165165186,0.39322141518896014,0.33985985999923907,0.493633380941775,0.6881993003160223,0.5613808368394468,0.4232731662954641,0.32077530676043553,0.0,0.1334700627049159,0.3985868408926523,0.4774225776503971,0.5124688998161,0.4559908164390323,0.4190232031467711,0.4527052745307589,0.4865710270631931,0.4773360403163429,0.46457913839359044,0.40655614206361257,0.09282734778284585,0.1824085960526407,0.4695486851219566,0.5513493494489459,0.5917170951750004,0.5661784384543034,0.5626316624127079,0.6412567090264019,0.6899516472148846,0.6774812207397556,0.6348232039157669,0.4763285142873044,0.405869302945693,0.49788152999032054,0.5915008686237146,0.5656642503887181,0.5906424077151917,0.5750295242527019,0.5351181015655864,0.5156693743739678,0.5824685984582669,0.5814980827714926,0.5386464023980619,0.3758622675744623,0.31779032242223604,0.4846293913204951,0.5188859383855169,0.6383857611573394,0.7964924590797087,0.6930761892412445,0.4643942633896394,0.47252950238418645,0.6568990522153317,0.7383514201025467,0.6709619416646975,0.8644208516186689,PM
1.0,0.9131628293119036,0.925942230124295,0.8933977120648111,0.8922147885842757,0.9571610816270875,0.797136563985322,0.6520071745110727,0.7954311455912845,0.8856852984611858,0.8898674646080691,0.8559215051889204,0.8599476709966976,0.8279429336467272,0.6307979304231947,0.6583897464775759,0.7960508069107245,0.784603609390782,0.8539909755125257,0.8456018816725953,0.8875303511644117,0.8141677335464876,0.6510896828723438,0.7598960224476478,0.8763300596261707,0.8896202127041828,0.9053067876543293,0.9019256320878595,0.9498699636553751,0.7873308070859818,0.6956297991508017,0.8579084511070567,0.9071720653475308,0.918552032684121,0.8541608178907895,0.8246428943902877,0.8881755444564523,0.7331126339916679,0.6580734165669636,0.8320923078015094,0.8652642364703138,0.7972480458846432,0.7616673869258683,0.8034855927172193,0.7736314810065479,0.5943544191048926,0.6739597399363566,0.8212764004203712,0.8383137338971278,0.8620130430874964,0.8590625031588977,0.9194326821646333,0.7716026956861107,0.6666820609041838,0.8269050783526731,0.854782903911055,0.8382851739253734,0.8549759581749782,0.8626267261777891,0.8479517796203987,0.6709674966249634,0.7137992959325552,0.8435075874270468,0.8322497601511029,0.8683831136520408,0.8518195068705529,0.9168268116421683,0.8262551270917882,0.6543957127355435,0.7692081964100445,0.8884038176036155,0.8657697865300895,0.888420293096285,0.860584921142947,0.9129492195844009,0.7930062298101777,0.6515782128444368,0.7884695702311337,0.8590652558401428,0.8694510748213045,0.8562754804182895,0.8824524277611998,0.8642640367173389,0.6838735030337325,0.6979107461149915,0.8489694833512476,0.8451469355095533,0.8602299654976531,0.8322057095329044,0.8652701665953055,0.7940588609652269,0.6511096282979101,0.7803910589232442,0.8437125398867071,0.835259912589916,0.85364801300835,0.8451641833622829,0.8815071567160493,0.7129985636181955,0.6409211507921599,0.8101432939924256,0.8411362748564405,0.8732211575604747,0.8893230131992274,0.8631109202431435,0.8740045641510514,0.6984177021435034,0.6762534774591231,0.8333424534092561,0.8275670996805929,0.851805653619531,0.8236776209159808,0.835375345597778,0.7788726056830698,0.5951033811148774,0.6766223125167365,0.8199791197053852,0.75978578156713,0.7392373605920003,0.6893070504704094,0.6388789665831472,0.7104268681611615,0.650042344203657,0.7235875230057766,0.9070851219526352,0.920047771976231,0.9206539198454573,0.8940821730293036,0.8332128040611517,0.739633597146252,0.5491019388855575,0.6092377918847806,0.7572944082605737,0.6588841819670779,0.4915436122345548,0.3375557771519364,0.15458674716636164,0.0,0.06039880241817858,0.2430001571049555,0.41573788268155454,0.5702223105886098,0.737400813798389,0.8001037485011817,0.7011176945781364,0.8046109323120827,0.8744536381959243,0.9425604325680101,0.9483617909182525,0.9578280189033734,0.9281624598254665,0.7987268479053476,0.7604881301030704,0.6783541973613434,0.7336664121025308,0.771228010387558,0.8156489387589545,0.8517356644946481,0.7479604397815529,0.8460746464698613,0.8672281196541187,0.8615507060601928,0.8758859669112167,0.8639767020020366,0.8669051121394373,0.7836248327220883,0.8995649356748918,0.9147414191428014,0.9112776711035224,0.9226742541665427,0.8720123439022067,0.8743760763690906,0.7945107146421474,0.9014924421632022,0.9003734527997074,0.87464179045518,0.8789499091412161,0.8733636793026722,0.8524570591515634,0.8070576747367729,0.907670289918056,0.8716410054391106,0.8858008011633458,0.8783239333374233,0.8918874971984905,0.8449666070944302,0.9048400338478921,0.9264473352861131,0.8877624787186196,0.9034005693662146,0.8885719146206401,0.8534764775112167,0.8318591637090558,0.9512538566102948,0.9086260045626462,0.919278419528184,0.9031880857235284,0.9211044764449245,0.8562147629972018,0.8707185316025043,0.9638848549697534,0.8938353304480602,0.899117113790262,0.8743807246543525,0.87845964419982,0.826453367151063,0.8059465974941236,0.9219556603583412,0.8850758095920701,0.8895806325367448,0.8599715734362683,0.9092212087461709,0.8664046573217468,0.9074071632367218,0.9541973910945118,0.8861596020999496,0.8955256942699945,0.8666932910261327,0.8443423410940049,0.7591989234360427,0.8568214567899355,0.8403667984382173,0.7948170726860697,0.8346005769372165,0.9058114167291669,0.8685860035122257,0.8198389412939316,0.9331096119473612,0.8716055681972983,0.8837107942881797,0.9549687922582344,0.9385248795224204,0.9148987588424562,0.8524097210153196,0.9759483734586998,0.9508227269550491,0.9337691520338554,0.9359382903805527,0.9118733947305746,0.8597802385369278,0.85979406522773,0.9300291653136357,0.8804292511154026,0.8930458876065757,0.8239819703129253,0.8345067900685775,0.7732303456633803,0.8265380647809424,0.9182235626605051,0.8720859543193606,0.9187916279469317,0.91681112996682,0.9088074631630216,0.8243323652472544,0.9373885610001809,PM
1.0000000000000004,0.8110434544292895,0.7930267040049843,0.7871674306980752,0.8952370331395594,0.7137250571477964,0.6412545057621948,0.4314065821388624,0.0,0.03055284217768328,0.4640020480470892,0.6185602290365515,0.6636584377888268,0.5834021830676219,0.6265750044065483,0.8794252621932501,0.8144991794459835,0.7406766062970296,0.6891267196351851,0.6908275966001507,0.6755195716898656,0.6329266930383586,0.600514803745706,0.45289208399710024,0.12644472653671546,0.022401915531712557,0.1499707728314057,0.186886185809656,0.23723279093457839,0.4123504946092824,0.29650625519029106,0.2162767845510758,0.14780472304493308,0.31798333456796124,0.5962513857337637,0.7149399533854415,0.6809299818853294,0.6053401465321708,0.5227538862948133,0.48773807558538307,0.44640865825368703,0.4637834411048485,0.45747098729897884,0.44376497658705505,0.3140489169624483,0.24197485856515177,0.31192341825869674,0.33164402859430364,0.2939622787091061,0.39826988958330967,0.5377998919022797,0.5080440239385644,0.4909897917894863,0.49748090193709116,0.4912909364795679,0.4382882223038491,0.3863228623533761,0.4598621588572538,0.4849114817445286,0.4864782187591361,0.3575002606918076,0.19213664095712168,0.37651093986874606,0.3964346109216752,0.5035566444229116,0.4718630659703762,0.4842080883128803,0.4249643615993599,0.41581637162098817,0.3995869333447635,0.4004498611837106,0.41107395096936994,0.4610793803249935,0.49532285940403664,0.4840127987683376,0.5014447224701994,0.49925212915571526,0.44394017971257327,0.3143011706736525,0.3607613985776399,0.4682639664375956,0.44551913081663175,0.46631314531663115,0.45899304794704054,0.4341273854963399,0.40876035904296826,0.4626817400669512,0.45944136954626424,0.4278596686908944,0.46078904928508413,0.49402816934031124,0.4947314484613634,0.4349578443364557,0.26705052596145684,0.37854763197546637,0.44065611359707324,0.4600622130372023,0.46488354553813105,0.4643181522621167,0.4625717579450854,0.4349618362581751,0.45286061490042373,0.48543523861553695,0.5103202755298559,0.4479945375672214,0.32304491745822794,0.31725714388975224,0.38090339552157104,0.40517948268954385,0.4140923548132638,0.4380344034960042,0.45802743104166854,0.4501690070190003,0.44795778602095737,0.43752215275003303,0.4600914889780108,0.40013139479272475,0.33772701909033387,0.5120336555525835,0.4884610165652341,0.4516707040823822,0.43464784485745067,0.443938403977608,0.4043425315211846,0.4049476599925632,0.37593573694410054,0.38990757696947087,0.34824075618368955,0.31402121519868054,0.37283656583800173,0.4758372707851102,0.5398381091964537,0.4144918947360021,0.4785743398232509,0.48657394680394406,0.5084881959647074,0.5665358787977137,0.6343734763445221,0.79025176800821,0.6916887820794053,0.6194778419836529,0.6017236683207905,0.5086697285386608,0.420486562484633,0.4097944637884945,0.472381211324139,0.46286351985688823,0.49174715256038315,0.48713935287357213,0.5169026688560714,0.535747314994929,0.5142391208524111,0.5809609631010311,0.6504139960530861,0.7558169286859013,0.536279145555381,0.5454483014273883,0.5455766864068718,0.5186070385423482,0.5396117223063492,0.5443412371355136,0.5533366616862025,0.5049754379110207,0.5196902278865303,0.5151542616755513,0.6975503787121866,0.5573921768443779,0.5136022061031813,0.5822197750792757,0.6012698050324947,0.5637622286767558,0.5306560264530091,0.5318050889238051,0.553522364352764,0.5522504231244025,0.5646677276840797,0.5876377238426445,0.7480266804687865,0.5773323858031532,0.5115027069181832,0.5725849221901633,0.5858679581309141,0.5718999168688965,0.5168635373340078,0.5474735952399805,0.5565303446794911,0.5145116813294095,0.49796705662098795,0.5429702135211474,0.5696880336929122,0.5359597719102327,0.598128764069588,0.7346155131488166,0.5329209938817381,0.5282195495673494,0.5866277001084343,0.5958644961265791,0.563395032914547,0.589608448912105,0.561797259369738,0.5097466659098737,0.49592694817711935,0.5009193079713814,0.5192230622001235,0.5192843030170944,0.577851063484828,0.5649520919505253,0.5973153882629982,0.5703989121990678,0.6081605863958051,0.4303439637601003,0.5649352827123133,0.5781546361361802,0.5783038067857049,0.515539345088901,0.4889476011438849,0.5658015781585481,0.5926402678361629,0.588793855626939,0.574597818628531,0.6137320570721903,0.5988338265096349,0.4221170015941018,0.413543971235367,0.4544748551537747,0.6031465235642957,0.5073318357306964,0.5291680377309635,0.5447903683009501,0.553740545649211,0.5475400061431626,0.5715657686535152,0.600635833760784,0.6753816869198697,0.7564920535878672,0.8012331120508231,0.7642432394705154,0.541431889024242,0.29520272130595737,0.3073814778912891,0.3723420636710606,0.5352769914941651,0.41405650205725486,0.3473019762813414,0.4843893347867998,0.24563754966257045,0.26657518336349284,0.5931588515811321,0.7060990846961874,0.7154612840605634,0.7632767955635149,0.7858930551036427,0.7895099737525526,0.8705859597541807,0.9596207406631945,PM
0.9169315185211546,0.5058816761213207,0.6132148161957209,0.8696774212852911,0.801457437721566,0.8326264884816734,0.8308661665903345,0.7712787039369384,0.6875252059118595,0.838396427641716,0.9776152716317548,0.7995653065088131,0.41570338329138945,0.6110780217428344,0.8560899033080667,0.8125892344322916,0.8428312363106649,0.8422877997314233,0.7579942969192965,0.6975381934737834,0.8493673898529195,0.9399215222616955,0.6178891680901617,0.4055240641022697,0.7461476177112989,0.8359333870097514,0.8054326275130139,0.8449249291531367,0.8298884210311732,0.6927985003562445,0.7676099551228275,0.9099217172549234,0.7883669219117573,0.4054021947062951,0.5968688368368376,0.8321172703896986,0.7822007309827377,0.8208510732446703,0.8197437640759369,0.7242533391974206,0.6994086095650236,0.8665550137900271,0.987313853574664,0.6869922145075966,0.49232191708417483,0.8046876767255189,0.8337958338592852,0.8120232583907632,0.8415058961164521,0.8177982053242798,0.6830590259375222,0.7716880842113685,0.9137860945883156,0.8296943764386848,0.44008275454810275,0.46798181880632606,0.8026655904851954,0.7890439582391211,0.7788055183206868,0.7954591656645043,0.7573033225259624,0.665486047564886,0.8147933005494397,0.9640534809112011,0.7574813604918444,0.39432613479016787,0.6351201649295604,0.8424486839505574,0.7846367967527323,0.8133443101849738,0.8086806942889113,0.700823897886516,0.6486835876574457,0.8016848287179597,0.8989179805312195,0.568042728847352,0.37471628465417206,0.7140586600521213,0.7852690780959335,0.7816183351363042,0.8107758338918727,0.7667699007823516,0.6460945799815494,0.7719356125832284,0.8888241451970214,0.6807645598595118,0.31085424325376265,0.5436826662207874,0.7744842821440636,0.7060618142766109,0.5886794935421757,0.40288602516298067,0.4315611899006,0.4899815456258825,0.6893341322739697,0.4051774254339604,0.014299099693119599,0.225197363521058,0.6624714870539161,0.7193227250030392,0.5797167305524404,0.6628588666910111,0.7537194121211102,0.7241290028334382,0.6869287681137959,0.6983706738982622,0.31952949489329674,0.0,0.31848528542731014,0.7017279927296973,0.6833787044807003,0.5400779463200656,0.6689905645708418,0.7411829548784648,0.7404228270516564,0.7135742174901971,0.7273410083677809,0.3451600175457923,0.05224656897616642,0.3974755912485579,0.7768650290332115,0.7496289279076398,0.5854912494049562,0.6710333887458533,0.7317647346043563,0.7153442250063773,0.6922094842356772,0.7043958151808449,0.31785408053938236,0.036089691855812456,0.38885144947188643,0.7562620507390168,0.7301725983534777,0.5920602946416691,0.7076060001708422,0.7770753536857262,0.7605763357284714,0.7241998300813284,0.7434994146630534,0.37141085062171,0.12893082081345186,0.505549253970323,0.8175780066444014,0.7334065937124172,0.5773371386268935,0.7019201180766217,0.7595204193522134,0.7334210567083572,0.7157169632533307,0.6832504600041764,0.26583244855718036,0.09439900971654169,0.5137235209179307,0.8057328074219805,0.7211716508714734,0.6065058790121827,0.7459169424251362,0.7812860056448268,0.7360180577428961,0.7340348846485616,0.6945017786081027,0.27746295563361634,0.07620337852624703,0.4524686483690188,0.7766621719963303,0.7230490574013675,0.6036004089095759,0.7384085236553297,0.7787395807961606,0.7590111137505631,0.7531472885961825,0.672812045340826,0.23663022488428842,0.1111480628765047,0.5508347694075257,0.8200258185170906,0.7109162603485999,0.5986889642931474,0.7343038053231965,0.7685859964633617,0.7474233896676947,0.7497942922831597,0.7519418697055082,0.3497008141734188,0.13625124410006295,0.5357224229784265,0.8526536507507438,0.8073310811824188,0.6965642698595931,0.8521373299584674,0.8942619429649048,0.8098205974223889,0.6711520311205246,0.6341093393102162,0.513036471781187,0.0743515462281732,0.014686635556209193,0.4575099541687344,0.6654161816945792,0.5539445604364459,0.5090051144209116,0.6691405143051445,0.7062368026175827,0.7028941795304158,0.6880596394375451,0.6931969304978407,0.31131415495413206,0.07485423465341912,0.4534211493605771,0.7879646584773046,0.7326856078973198,0.626066966008517,0.7839471770673645,0.810432462078926,0.715735677429927,0.6766390183718969,0.6923285789794775,0.30504472993902043,0.03809412724342498,0.4020610142410437,0.7720604612508943,0.9085852754773127,0.8696226439685006,0.4606693373653661,0.5402383915580684,0.7993183571897313,0.7377113449549533,0.7957200601305405,0.8763230518051122,0.8558166167311339,0.7048203556972612,0.8001063112411686,0.92264509488864,0.7068438773837984,0.3727488481181722,0.6409599253347864,0.80857305533938,0.7524654839498714,0.779000784821309,0.7590596037849913,0.6906596741754831,0.5627333080036603,0.6962637705233266,0.8284940720979044,0.6070988527072863,0.26837788263415296,0.5307591297064504,0.7235613620858132,0.7189168506286225,0.8471595922690096,0.942664759055057,0.9417053391355032,0.7936559636972709,0.865575160402855,0.9999999999999998,PM
0.9710258094711066,0.8553637858341876,0.8544537312889133,0.6843168434426885,0.7752441727636752,0.7756608401559495,0.5994681081098046,0.5855977445727643,0.7484848515529383,0.7236531925186855,0.7652544929103913,0.6363290014565788,0.7551359852411688,0.7812325366050108,0.649195742969864,0.5273027907618415,0.7652093183236612,0.8577567838748581,0.7578750678414168,0.8540319968006895,0.7359445553139219,0.8594539673719792,0.8717113989206524,0.7112489959059816,0.6610741888584433,0.8898131645413678,0.8651931493538183,0.8434765712265655,0.8284159281804966,0.6740859732859081,0.7564098832038679,0.7039330246129656,0.5003177725804777,0.5996702056805807,0.7238556187322258,0.6495084416321699,0.6958591418107498,0.586504929235999,0.6985550052622798,0.7045779818489564,0.6702439045365627,0.8675159404217001,0.880640947224542,0.8123093783218707,0.815235522244921,0.7440926811714359,0.8944157807538384,0.8891029182332542,0.6518912932592844,0.5620697555863732,0.7239840805322437,0.6911401063761735,0.7113543521906909,0.5941246263856743,0.29580911129811804,0.002429469467482903,0.19425277491161275,0.0,0.31132373008244985,0.5466562411501954,0.4402669056619781,0.5358719392766895,0.49499318959056726,0.3812417523650149,0.600220093236393,0.7389183248599784,0.6518711005663835,0.6234831966344228,0.6921653539626869,0.6074581389362743,0.7989064579660119,0.6887420239030022,0.5217777741310994,0.6020150513390097,0.5495477263185289,0.43028547009793705,0.564935750736141,0.493810228178607,0.6081839071611945,0.5061724386468196,0.31528337349089774,0.5081543665385984,0.6404177314519668,0.5502041958718493,0.5660093442990322,0.6845808387830199,0.6480919461185146,0.7628983644827443,0.5740256346050425,0.5165661693842947,0.7118927655481997,0.7332501903277264,0.5866382673252208,0.6910716017262537,0.5983665447968756,0.7026218411446212,0.6313138552323365,0.3983090869721777,0.5204960115565158,0.658398501101352,0.6073152783869378,0.5113357549678277,0.5824805302975289,0.5306986281273631,0.6289582382637491,0.48022405876023244,0.3285806042200514,0.5477705110504147,0.643731783184053,0.5315871497691385,0.555345475844613,0.720935665808708,0.6665169145265195,0.832302488519868,0.7910858631599043,0.5285489157314278,0.5197329917033704,0.6228827987844214,0.5335921944626745,0.4909344157119344,0.5666771412458123,0.4325275662140262,0.5899644201401935,0.4562791445059444,0.3730432491345894,0.5946270532314766,0.6419438297217601,0.5297714072041866,0.6431157810057861,0.6264284899594856,0.6485004291881462,0.582491322947047,0.35966395278366425,0.5409194665634205,0.7094264554795955,0.6546100168099738,0.5668655088269912,0.6680685882069741,0.5652656270531318,0.7054183824869034,0.6092857175557431,0.4220088657062959,0.6016526710395258,0.6600542193061676,0.5050352280944961,0.6016415418901171,0.6426445797020803,0.6206447637656178,0.7273240508996386,0.5178869428957218,0.5549679680908288,0.7334105342582062,0.6103688456870837,0.4578164358343826,0.6078746717569281,0.6243880837316707,0.6603893050252392,0.45192869882792186,0.42244349746997534,0.6527818478615188,0.65174791648352,0.5277656247355393,0.6283371760321179,0.5816749294927837,0.6623595456985307,0.5271101946676993,0.37996336403016473,0.6087089580338545,0.7077438806470999,0.5703579374065324,0.6418793261201778,0.5984374228538818,0.6434496147810567,0.6444734199158155,0.40442274747293583,0.47162757254885257,0.6641366924887095,0.6152990226036081,0.5222070972562589,0.6891611588434494,0.6746721445815687,0.6961008079984738,0.49348216284615853,0.4024692947971915,0.6299048392671893,0.6251319450959252,0.5411588805193084,0.7638178953595283,0.8129034546448937,0.8160369823859859,0.6781297439250751,0.7046406861432524,0.784300382707146,0.633508685523299,0.5649423067262989,0.780324203931491,0.7680256100433307,0.7595151071649062,0.7506656055884133,0.75002020855004,0.8502338122849693,0.8010486261377356,0.560950694787095,0.6260684680087549,0.7842045163167537,0.7464906523076245,0.7846442690552209,0.6711030941456992,0.7460240201033401,0.7845403549176675,0.6090190238835613,0.5333086701129841,0.7455381783779713,0.782276112261028,0.7619530050348158,0.6385093041779606,0.6800557637527538,0.8466767045780692,0.7688296637822427,0.622699066800688,0.8167025372963019,0.8085563435239793,0.782824176935514,0.7566507119443808,0.6433194464006364,0.7808800797787501,0.7516807303221551,0.593598296585113,0.7636549013916314,0.8843047619880999,0.7994824695646434,0.8319661586430551,0.7018921756120005,0.7979042247790296,0.8423934770084744,0.675493986684732,0.5323004099798081,0.7295658123602893,0.776703488348125,0.7838498268305911,0.7367657305079094,0.7178675303630015,0.767314509216527,0.6319982210297801,0.4912881607406865,0.6926091849169005,0.7167924098530207,0.6265674206329024,0.7382395891898668,0.6108738245519785,0.7276045696074802,0.7578624311603002,0.657689569946629,0.7925564521608086,1.0,PM
0.9405316366790909,0.5680377370958122,0.20077714902266208,0.11079946627000348,0.12844921124247255,0.1193431756509985,0.10886996938154303,0.2227413938994408,0.5604037143084427,0.9077749053869378,0.8225588126619644,0.4325098633030421,0.1162904234138572,0.11724947778813155,0.12666864505073672,0.1107003902212641,0.09660891465320842,0.24335437890220535,0.6058333679404161,0.9464400275719748,0.834013955663447,0.44514448959866393,0.1548824523533393,0.11916321234765326,0.13000342193383696,0.10183466173862599,0.11789642318024895,0.2988443190417799,0.679243101279767,0.9853446954549915,0.8050827189940136,0.4156769527479903,0.1331566597573618,0.11712992167205438,0.12545775751266441,0.09374144706710175,0.1306115564836937,0.35956278895358074,0.7505326174328643,0.9820160190991954,0.7152334331837441,0.3188603427988451,0.11732864509057761,0.11719461263282971,0.12019749725558027,0.08492168101443143,0.1325829237493764,0.35847454260152667,0.7501438834788848,0.9831022501822476,0.7167217309308019,0.31797882588728943,0.1091949248860099,0.12006360454809883,0.14929476210806236,0.12057875917556371,0.13820457076006998,0.33248043274335803,0.7138506242492734,0.9774935332641513,0.7620835184386646,0.36466285264736087,0.09830679765338768,0.11694973274494813,0.12774079051847786,0.1056130581247513,0.10137255694841352,0.2530500106115797,0.6185292251917472,0.958242249177787,0.8403753534031816,0.45852503782494825,0.14490206562674957,0.117602971494288,0.11906544424403476,0.12626133423240515,0.10753405849001252,0.17582676910044392,0.44075906819103994,0.8338173103818799,1.0,0.6852454346913325,0.29591929822007323,0.1265760278371918,0.1186978369129904,0.1252103978051463,0.09421916414246112,0.16953991430203053,0.45730418898016023,0.8342438864664313,0.8940107395374263,0.5400073689804304,0.16243906778604533,0.08876217221457983,0.11763613145920593,0.13951641816935878,0.09406735772647667,0.11864876034859984,0.3288163985135263,0.7169901217280671,0.9752308567063853,0.7316177895532331,0.33351954122952343,0.10796103367880161,0.11537247472430356,0.13333665943317274,0.10307974723871582,0.13235467354697172,0.3656975392219671,0.7568628957033815,0.9974834373428284,0.7447793920508338,0.3480873873464688,0.12248803524547547,0.11913728779186117,0.1433840195806274,0.10955817973677229,0.07285018571869106,0.047727582734832685,0.0985232593281079,0.4519532465032571,0.6785381974842045,0.4093018240298244,0.12137821824378292,0.038626328668514676,0.0698065083406395,0.06890812613468633,0.03794597429635249,0.016206622075071064,0.3380921488596077,0.6706298871189119,0.5461296974778337,0.19624299411618573,0.04942378110588985,0.04768610780380489,0.08407837750656266,0.05943928945514221,0.0,0.22066234119919315,0.57745685854671,0.5165638518816772,0.19085601536329155,0.05632430110875386,0.06725892916099674,0.07260196465014734,0.06037379016034705,0.04829448330294961,0.3325992358722706,0.6764117334691265,0.5712619580989723,0.22598245108276716,0.07657351466428486,0.056130290874707334,0.08159891011775533,0.05829583741877664,0.025545198525224633,0.10814737169596611,0.48110118786249145,0.7239543669766465,0.4658855775724632,0.14509270390566853,0.032465458426141014,0.05948883592166754,0.07143389263488686,0.0553580601085083,0.009530960678040601,0.27851401271723975,0.6072118751132648,0.46704700327788473,0.16108084667505673,0.06649443931938415,0.09116015474956007,0.0763072920611082,0.04903887232297299,0.055089883984232535,0.38854688790480807,0.6920309290857579,0.5147678989041414,0.17591430543284747,0.046149007083101434,0.0398364416091368,0.07542402250283586,0.05956144148551645,0.025194780032654074,0.1911327473684835,0.5680631199593115,0.6472080480748471,0.3076110920826164,0.08242077784170398,0.040368102729844924,0.08118535579358743,0.06782117914355335,0.033554646620481576,0.19973849181537584,0.582815288259617,0.7110789988385252,0.3829841593143489,0.11096576487929466,0.044492708762476685,0.07744576390936098,0.06121243296851009,0.03160702076670818,0.09317806298149878,0.4430764234360359,0.6887997117643344,0.4420489631715915,0.13532400275674583,0.044203471573577846,0.06838554099109417,0.07696294496983269,0.05730261245096824,0.01590128764383203,0.2893262052909936,0.6700911984735277,0.6956851157428142,0.33760001141967544,0.1012583642255892,0.045488710566518376,0.0867045781103476,0.06924323482428008,0.03974154705075994,0.08127695736183538,0.43896223803101375,0.7080536669450895,0.48601673637760034,0.16082317578775818,0.05087618417987316,0.05507361653204368,0.07302196344216016,0.05953424394969986,0.05150542522851642,0.30688706832788226,0.6695957083145229,0.6400425860964604,0.28251688181423196,0.08023509576395249,0.05311016331266882,0.08159238939252689,0.07195613262995149,0.10896953935051823,0.12915477128327424,0.09834117966495082,0.1648118043737633,0.4576109578426749,0.8455203429672408,0.9474927280238993,0.6120337793944332,0.24250934056954165,0.12513996396721072,0.1225811201932897,0.11705857582178802,0.09726569508422112,0.2159146442397203,0.5598819817024431,0.933899180245981,PM
0.9290673854025457,0.4511732374993178,0.24531875804600567,0.21755503196195125,0.24602359267462903,0.24141435916925813,0.2832193879803988,0.35277682967984925,0.20401633426188726,0.23194192728553809,0.28633837539439,0.6121830666296915,0.9999999999999996,0.7150773918987361,0.33896410538504185,0.22036738566041647,0.23819574154384826,0.23045275179097002,0.2180819675316492,0.288872242531498,0.30349278507642197,0.14691773831681454,0.20302868792877016,0.25581401928696046,0.5758712715461702,0.9859761794846125,0.7149541842262224,0.3462804245115665,0.2433545484198274,0.26757985526018846,0.2472865734603218,0.21161194423442176,0.25335228899060347,0.25806108761917823,0.1257515770750599,0.2198286499280666,0.2916705225846141,0.630279800689272,0.9665722785051005,0.6115903716985054,0.3213264372481306,0.25971339383092973,0.27976328930857264,0.24953930069345898,0.22094960857443624,0.2642781556795071,0.11261318458427727,0.14710215023909967,0.12872658237193146,0.26503392463280395,0.7188606457274238,0.8071156719310184,0.3644991911607507,0.23060291430507185,0.27806610961212597,0.33623546896687717,0.3148418399251254,0.2922364281614769,0.3568508511013877,0.21746085562438244,0.1862549426318023,0.22053361764602597,0.4176622960403651,0.8655655478348376,0.8395619512051486,0.4033540899216832,0.2424868828379978,0.24349106260872544,0.25277511258065655,0.24534754388709556,0.27854575254555103,0.32731741089491306,0.1527962007821695,0.17421206172010173,0.21629568124479315,0.5167851721423156,0.895481769823705,0.6437597103036521,0.2977357220659296,0.2069596943078893,0.25405690041642526,0.25038058652056483,0.18751733553750016,0.16439147413148714,0.112162205478604,0.1483891898989138,0.35918950918521775,0.5085621706498848,0.19980056554642234,0.0837544557196197,0.06018110799377485,0.07288460514324235,0.2104056368541003,0.1545805070372599,0.15271270556992844,0.16248437526248205,0.1192840565893225,0.1608348780401756,0.33275103782024695,0.5337498208147218,0.25446138251152073,0.11801582142550293,0.06717300927353165,0.10536536071501379,0.25422604994608555,0.19746412935382152,0.21844540798552092,0.2366776901072707,0.16384976793581707,0.11520204565480485,0.29547962301982,0.45651556162075657,0.12123279328005676,0.029877997167674142,0.02392306097657393,0.009137334430719957,0.14512105353038507,0.09090180814727944,0.14097910828309956,0.17535379923082006,0.13592023698512667,0.1954838009931823,0.4038778257489595,0.5300478104088886,0.2342357618297366,0.1411752955366703,0.04789353172048827,0.05298040121699099,0.17704424907336902,0.11683036645223543,0.13079740617388635,0.16719106164550723,0.13612073549869308,0.17669276561014735,0.3910136893623628,0.54369236437699,0.23443656909477006,0.11912348992127919,0.081304608997538,0.0487529480993949,0.2192084466033326,0.14585430672276045,0.12445012258694454,0.1429821450162998,0.11327643503506968,0.14341228833626873,0.31698052280970845,0.5407159299320279,0.28083663846850015,0.15725356693259762,0.10769623962161345,0.1439511063951029,0.23041389366967824,0.15942848426018008,0.15224771743643295,0.13005147173779585,0.09333201973221072,0.1975583172607691,0.4718228172215726,0.4232405001886943,0.15420238497422023,0.12656432594701794,0.04766435946833436,0.1562495541161204,0.1839465699165883,0.1210772100662334,0.11709395082669305,0.10943090242790188,0.06849839984001926,0.19503330146824682,0.5199523923256368,0.43593178015864087,0.1284312111246182,0.07029252828269605,0.0,0.1263065530312919,0.26480324813428835,0.19123075429076097,0.18113265547467616,0.16092199872066804,0.1268534105867709,0.19006914258361718,0.44177789368208753,0.537606979253499,0.210227705925619,0.11914554582167147,0.06923037025425804,0.0737028065469576,0.2180807377330014,0.1427871064431474,0.1371486677432765,0.14401981103773176,0.10433759556901778,0.17937574410398982,0.4596083024523461,0.5628792052862668,0.22343567309966916,0.13817781139312402,0.0970729567890003,0.0725776002024281,0.2024258409413271,0.14978113537431792,0.15179817706215992,0.12573527170115906,0.12134611499162062,0.2259207346347245,0.2624410772342629,0.21149679715441616,0.24494375708301108,0.23840861211030884,0.26149180236392944,0.3006945121769071,0.16525805643554747,0.23497111369807167,0.2379657174996277,0.4535505060422631,0.9128878634864157,0.8408325828134378,0.38873695122762353,0.23609820926699943,0.2456781168450588,0.24160010347516403,0.22514642568315413,0.28809808108269275,0.2972732515495182,0.1662055614742659,0.20837606478927517,0.26771270857727014,0.6195274698828577,0.9655106390885151,0.619666109525344,0.30903750872489955,0.24728378205331936,0.2600810249630765,0.2773107899598908,0.2971663590270981,0.38352199256451414,0.2098167485399296,0.12487119008214709,0.1730367364789318,0.28679151856581475,0.7160975270442753,0.8982163469089071,0.46090169768442246,0.22018765995614542,0.1881927085785553,0.21187372105904023,0.2153457688798177,0.24476442669935183,0.3273720675269298,0.1933835394025878,0.21104932792145759,0.23125851162484556,0.43348728294716965,0.8987487564695607,PM
1.0,0.8218106279208124,0.8111048659355733,0.6477109014304543,0.49068543571002987,0.7302598831270184,0.7123929023913944,0.7300645432233046,0.707543501955759,0.59585662906286,0.5991879848343378,0.49838408394529354,0.6968532319246017,0.7880758385380235,0.6086213426120866,0.8411705640438654,0.7481523195370219,0.7236215602410754,0.7018071678204416,0.5883904722035505,0.7958608656300123,0.761536968514676,0.6370498930633923,0.8752012154516944,0.7331976240599039,0.7470418579598168,0.7146598040699264,0.5619311238273816,0.7409457214681816,0.8344673361531489,0.5816828081681562,0.8150326112882049,0.8443114547727517,0.7491780952076588,0.808067027638788,0.7529217282681118,0.6692898106361453,0.8802318411159988,0.8138395954490467,0.7832049559570708,0.8979330520891509,0.736402037897903,0.7851542756096879,0.7218090772479027,0.5471788568753992,0.6961084577927923,0.7915779488465384,0.7220978414446217,0.8659725019492068,0.7193097800705304,0.7715606868690297,0.7497788906525193,0.6239926133405884,0.6650517595805319,0.8794572600478525,0.7057421871916776,0.7813000713916596,0.8669213076024946,0.7337781757381356,0.7847749762238081,0.6974527850159471,0.581522187911832,0.7603571739096959,0.7935139109503053,0.5752726982970215,0.8304487374031959,0.7448729115170512,0.7005232523271387,0.7735704231226124,0.7089926212246054,0.6415635224061487,0.8514535984802998,0.7552928116146584,0.6924871836927458,0.8809656961218177,0.7395879995372412,0.7832535085524293,0.7390594760601292,0.5956853259495483,0.7703218940897596,0.8168261744125744,0.5941044918582201,0.8454444756956518,0.7939488150534082,0.7670631163906516,0.8132488349418745,0.7260414714425081,0.6390006971056361,0.8647494429791136,0.7883181337796255,0.5174783286901539,0.8356231168641957,0.8319554449432913,0.7614211540458626,0.7759849282345228,0.6508619132320126,0.3233037841229094,0.3471847443952436,0.6302513173705382,0.6864066304656316,0.636035022117087,0.7778134660657363,0.47537124993082713,0.01985803649977891,0.33818410169918556,0.7674350445007918,0.6734576938804526,0.5275298907553827,0.6821042746585064,0.7202109069338909,0.6225091162856495,0.7225528848119751,0.5522061306176651,0.04976231352041727,0.24901089882431204,0.704153633595864,0.6418266975336064,0.4856416581906262,0.6469432439109286,0.6882314632555397,0.614076315243834,0.7457598298684518,0.5179953790730729,0.018443096235135847,0.2501254752886668,0.7152606586898478,0.6433812035232838,0.5139379824029602,0.6696019752647815,0.6605139164321208,0.5686629318170366,0.7218766918518518,0.46426153783971413,0.0008727823240215482,0.2320053231159238,0.6877354819899044,0.6369872045467084,0.4600769636381221,0.5898431640825081,0.6766550744626243,0.6178643769619505,0.719500259471892,0.656219235505048,0.14174315047651342,0.2224706964888803,0.700385939826325,0.6815407483929539,0.4657540816216761,0.6013430935421336,0.6702004071534273,0.5837349375887921,0.6706353418044002,0.5380792266948937,0.02302730924954366,0.12944618010874764,0.5832944336011199,0.6056611234818732,0.4114704035793664,0.5635994469914811,0.6638833116707752,0.6066798326423877,0.7037836897157268,0.6513228884829951,0.18547998325694248,0.374793589531512,0.7653537794053733,0.6333584200770344,0.5528028053571465,0.6904306752767333,0.6760580517605348,0.6740566612857708,0.7059670773669064,0.21272022925204448,0.07938745408837233,0.5795503496110324,0.7351274154907994,0.48545401290683143,0.5300814958590365,0.6625083457255259,0.6005289755796173,0.6919655620593574,0.5611565176855366,0.04802887034511727,0.19936822318225778,0.6763924066191529,0.6507914495432798,0.4850641608347295,0.6418417727747392,0.615269649353793,0.6554047352752876,0.6471458899566835,0.1530160340840152,0.07682158725746024,0.5762909120915523,0.6583802830750041,0.4166180826202148,0.47763999164397264,0.4964869587828864,0.5428946401675074,0.6251631713870078,0.15185922379819594,0.0,0.49443041802264887,0.6340020018374473,0.37517304435771504,0.4970337454223235,0.7082752050188716,0.7071057785936645,0.8161627134757041,0.7213875889934811,0.19461895146570685,0.2655613830389312,0.7733755877387054,0.8448890758386578,0.6483976664872033,0.7639599496539713,0.8103591896659488,0.7167950973153614,0.8262966490979915,0.6291971066622937,0.18552685921428758,0.45139417948665983,0.8071894130317205,0.6336748903874629,0.5430903836556604,0.7034938971526534,0.7355446183064704,0.6520682827156814,0.7636489175876977,0.44954102501239346,0.03717996426706671,0.3990717905942791,0.7399769790474156,0.5550602668848335,0.4130119279238844,0.6839325203499014,0.826828199185988,0.6713346848868031,0.8838395277565718,0.7908756484841897,0.7919373013998081,0.8193374927308006,0.6920984583347454,0.6615937367117244,0.8995202880508519,0.8756778879977638,0.9177581419049532,0.9258210951375121,0.849047192734719,0.909749110901934,0.8234884254017736,0.810292538090517,0.9924983845127366,0.8167689596496812,0.8573358695547562,PM
0.9541351273799503,0.8858062041328862,0.9244003119197994,0.9116118414545651,0.8623243988685618,0.8278393043993926,0.745517057823986,0.5090217452888472,0.7388119580713932,0.9002782805308251,0.9065986177622318,0.940580762451884,0.9096149412962979,0.8793359379166505,0.8662039917214495,0.7402282181656035,0.450888763932499,0.6292502515354561,0.9238248767584025,0.8984579628595695,0.9781812101776908,0.9793533589418446,0.9635813255643193,0.9065442444524316,0.8923133087557928,0.6692170811710765,0.47751698808264154,0.8000096825394947,0.9288809527493449,0.8943946649633208,0.9315734612163455,0.9081618524795365,0.868349511071864,0.8344022960385482,0.7550919397218001,0.4504301270503017,0.5379468182141103,0.8445751031990818,0.8284668409043257,0.9029325112725419,0.9396163398504165,0.9261274248956031,0.8889189078251118,0.8872417778768926,0.7642328360925128,0.5855514473130716,0.853352447119901,0.9322989678237188,0.9585252354636229,0.9871328698265127,0.9705463845033007,0.9101738064297238,0.8519040512447824,0.6057208597413566,0.6046758407458168,0.8982085983226453,0.8839383179082891,0.907868839367016,0.8427471244399265,0.8047233718161992,0.7988683876326601,0.6185546575117613,0.1856785735747144,0.1600180842581913,0.57002757468811,0.7985304997605418,0.8457316757313089,0.8988150023371242,0.9119930189607857,0.8596452914373949,0.8438094784019294,0.7168172736267597,0.28022841051762204,0.12578436967476403,0.506200804910294,0.7733905739832914,0.7904129220727383,0.8403611339814785,0.8594463150479026,0.8261523220730114,0.7308105630489208,0.7409005082068942,0.43221404919232853,0.032852892141855605,0.17669411771493682,0.5878367600879013,0.7295924860716712,0.7650656965929918,0.8130445886084776,0.8338371612877993,0.8348955130025884,0.784339268985478,0.7870229351821743,0.40738865700065596,0.12913895351614557,0.4376436502413352,0.7651462772794884,0.8231511709033832,0.871632617015548,0.8949688136253469,0.8907328371039578,0.7993303709503012,0.8275334986891241,0.5906966055294514,0.15422605019635327,0.1623461064544094,0.5788813332898084,0.7828684280263665,0.7959869404669382,0.8316775583416678,0.8533438684702235,0.8376903430579206,0.7757817133547344,0.7585724298367125,0.37009679127109085,0.058312561488202075,0.32781580992522263,0.6864268431495013,0.7459756703896048,0.789714009576558,0.819657091087431,0.8344907266817032,0.7885804242845902,0.8513682321051992,0.7429853180909101,0.30785176707417716,0.22955609821053935,0.6255817423317707,0.8402745060655858,0.8570697345257414,0.8882712947097304,0.8637441096852767,0.7725648830509297,0.737659745077879,0.6306165548019071,0.19850071652795598,0.0,0.36376034694472237,0.6541281844433946,0.6876591093569888,0.7269507649124092,0.7404807467184749,0.7478926086042585,0.6833480020593712,0.7147693305064822,0.3973324532548228,0.008251875224210448,0.17467557362769592,0.5808576490888226,0.7179835315798666,0.782923078982535,0.8499564631624039,0.8685840762373638,0.8212897762551763,0.8548524291463262,0.6427718174974606,0.22969323458980306,0.3083704155558593,0.7029106578040771,0.8165835624372364,0.810232831717066,0.8584149324166956,0.8747303796643777,0.8771832760211016,0.7759951015823003,0.7834643606709724,0.469642089253824,0.07595506999659896,0.23722830255615923,0.6445564494603502,0.755626193990494,0.7923712595718138,0.8467402258907606,0.8498581028869623,0.8113294712953811,0.7811299239611447,0.7145494456062789,0.29732276696504667,0.15775377172962912,0.5299835757614835,0.7517796235735448,0.7777574502029805,0.8411657386698552,0.8921844553268352,0.9172664752612258,0.8428010718356382,0.8402085039778755,0.48259241081839654,0.12886693658434223,0.3470978211702429,0.7263237350180696,0.8047712544348764,0.8164500984540575,0.8407028837472019,0.8937941554477318,0.9114997644287821,0.8849281424168307,0.8961293891288324,0.7146904839983483,0.48582161619257125,0.7855104145774938,0.9601134564703944,0.9767595926117376,0.9999999999999998,0.9545635714298251,0.8975445013276977,0.8424688586089824,0.7765077637744799,0.5791382551352502,0.8081741810241365,0.8777685848418009,0.8942942776121767,0.9449454916123525,0.9365951513917152,0.8724787815565671,0.8420717937943558,0.6736816688740279,0.5283904745080905,0.8327629704328485,0.8855881180813769,0.935091704873962,0.9617844150820207,0.9440102795600505,0.8979954935792045,0.8943210062899327,0.7069868206153658,0.5542461148278317,0.8683943337135838,0.9394835314309131,0.9301846895903907,0.9393067041006453,0.9049521491391297,0.8167014555801297,0.7780040795807333,0.5722467705746459,0.4404385987508761,0.752473596687069,0.7911579293747841,0.8240111995789194,0.8373858835312868,0.8167196908853493,0.7944889725723121,0.7685406654977469,0.6608988290277533,0.45879638084625074,0.7146297826417263,0.8386493937861474,0.854382230472734,0.9446020357582328,0.9714507993910586,0.9326961945456897,0.9208299665489579,0.7647244877357549,0.5648827646980199,0.8529357588736104,PM
1.0,0.9569911370726456,0.9074723699123752,0.667681162995359,0.5674182201209352,0.8364020212722401,0.9007696713652207,0.6195689282048513,0.7030157471641165,0.8569877460906303,0.8929142188623627,0.8973323467429113,0.9260044907500893,0.7746746038248578,0.42042734050166874,0.5931381290114985,0.8868515397228962,0.8843679078670821,0.48246561285438627,0.3637757531044028,0.8324231000225164,0.8956783292314396,0.8854072722483699,0.9848424875349626,0.9480951632360637,0.8662184307511822,0.6454868991112255,0.6900621133928251,0.8526133458220233,0.796830447179874,0.4696275838000461,0.692147030309076,0.9019497693649856,0.9477475875056491,0.9891604235607225,0.9299475703052442,0.7792684687974019,0.4589807213295445,0.5777999498523649,0.8537801483826919,0.8316217197455176,0.5704454542987452,0.812266025644484,0.9617124754904487,0.9506243749990135,0.9237264722702712,0.9043125401383518,0.6344827047596873,0.5426898165545384,0.8156828293035079,0.9146357152908524,0.6580631009490765,0.6948280405217346,0.9570314802848348,0.98044332121431,0.8978931204579181,0.8348374478917595,0.7185827477985991,0.4560422589945232,0.6345863463596335,0.8910871817505432,0.8396738487148179,0.5107525448090846,0.6479924451871844,0.9310371984714338,0.9104663301604163,0.8079474850214132,0.8309580537101877,0.7533826772712109,0.28728500402863144,0.11482141704673765,0.5672963638698234,0.7787362065096866,0.5586677296118272,0.2828326963276715,0.5268602385995802,0.7222119778934708,0.7702487528263946,0.8635465256654333,0.8538782592900223,0.5666351984948816,0.13538517787052395,0.4336257821789311,0.7903093920435094,0.6871057887465271,0.40534459125238875,0.5629212346216739,0.8171151069740743,0.8290022969843158,0.8573277820418617,0.833036602999861,0.49003525893686684,0.07876464778091075,0.4156781049267084,0.768630047008664,0.7051005020320904,0.3805833286543394,0.39347159974305335,0.7181068457557518,0.847097991634675,0.8838728614825899,0.833399502451611,0.7720224986712836,0.41490868010866633,0.10402644839639663,0.5064640831851555,0.7711362611000552,0.647068858601485,0.4776962412712722,0.6717658330723277,0.8201255025536311,0.8961874509761047,0.8149777813077286,0.7261834142175867,0.7954830715055032,0.32784959658547486,0.0,0.40698423455298505,0.7926725463577027,0.7133153378091781,0.35071170429719745,0.34049295549958236,0.7309047521475813,0.8216508098911,0.8009084647224798,0.7762638969126581,0.719337041739379,0.3338140484384122,0.16940457151810762,0.612385365614005,0.8143146230022071,0.6219667400828719,0.3920128431802894,0.6355419902318249,0.8251016229428276,0.8701766917918201,0.8997589382672326,0.8639673698280359,0.5348413219898069,0.10686649225255929,0.414400145824684,0.7850103171554133,0.7527343660020698,0.448923851367935,0.5199661863563589,0.8171771574265807,0.8092865396964344,0.8008333015946412,0.836465643262124,0.7046515112419045,0.2023855640051715,0.1832132524082173,0.6648915365718913,0.8017297527997793,0.537194238313885,0.34447956557228476,0.6692367118519691,0.8444127714706302,0.8441408987314403,0.8240959181162992,0.7657118996267145,0.35399368734826364,0.024515778075339778,0.4324704997520379,0.7859623545433805,0.6829891379184452,0.3671535632867178,0.5257347447277501,0.7998731873962659,0.8166014413311014,0.8165390023008641,0.8116429571809016,0.5003701684875987,0.12305599498978559,0.4844736019331646,0.82146707080474,0.7189888831372642,0.39123816277011914,0.48470496366965765,0.7642414583602855,0.8033968901506618,0.8205377281933308,0.8256547737731954,0.5679425037188133,0.09769535905349347,0.34289845645460026,0.7747788709641821,0.7711362228156,0.4548685780313364,0.4464708135016333,0.7685469009127015,0.8417892350133824,0.8528178455682518,0.8279602169811442,0.6991497786472505,0.18677108449629776,0.14544465407589424,0.626116162368286,0.8480370123153662,0.5988942292275561,0.5096331056537773,0.8742289243045609,0.926707448094402,0.9497630868255977,0.9325868818834935,0.8476046324211173,0.5439927842938719,0.6085562496822412,0.8916205830408783,0.8806406125394282,0.6190586488020853,0.8205141755405498,0.9272350045123501,0.9153004416583861,0.8992620278652623,0.8923554133440024,0.6812262207388389,0.5090943683538187,0.7986111386044161,0.9352251451594604,0.703267171576381,0.6076475766137226,0.8975594407687555,0.9122371772104385,0.9096168863672083,0.9142101409673549,0.8134827953667334,0.5042240440822479,0.6684991365821635,0.9057554260161922,0.8069898613060058,0.4186675501173136,0.57519314487226,0.8888074983476595,0.927560181412074,0.9348480058702173,0.9371227751852298,0.7790057034714652,0.4681537882366724,0.6605842287924957,0.9053448218547389,0.7887658341586103,0.4764388124702048,0.7651291586795819,0.9331678474376579,0.9073948071627558,0.9065716883007209,0.9210319448272606,0.6497907795054649,0.6175383021733736,0.8857789524498445,0.8515815729541325,0.559192369131237,0.7649647774520694,0.9759532834480167,PM
0.9414829282586363,0.6298820950700104,0.9302697946701985,0.936130586424825,0.9520380250732985,0.9363481540314877,0.6588458899704026,0.6431954515259686,0.9581303165822388,0.8285677648953031,0.5149548414734619,0.8684200271958447,0.8794566007072522,0.8735584747576253,0.8394862293483425,0.5603900410847342,0.6894270774575832,0.9449849196444018,0.701712415648577,0.6558579710571748,0.920101586492188,0.8827443210955321,0.928446678123001,0.8326807433272467,0.6039952300619915,0.8838182100747956,0.9602057613606689,0.6286330457014517,0.783016123644805,0.9197350212242275,0.8917987538756154,0.9095229611636206,0.7486788623488034,0.5454994513281259,0.8880704039301013,0.9445562990909973,0.6186330782161402,0.8317288735056403,0.9118520476459886,0.8957376654618918,0.8945567616686048,0.6172363402286831,0.5677929302921645,0.9116923949372748,0.8446456902567712,0.4884230481005938,0.816675695364323,0.8786334346435338,0.8700684695255347,0.9366452638150697,0.7569467787328406,0.6430143118233329,0.9530342817805262,0.8966622662967985,0.7506561056874643,0.9795960791346721,0.9055701921392507,0.9255437838032292,0.8085092982580262,0.5440826664644485,0.8219153211184342,0.9659591720549283,0.6280684554906295,0.7347205884724035,0.9169252672490811,0.8711429149160401,0.8955062338352544,0.6624035929967085,0.5725096702925669,0.9109451535431816,0.8693491844831689,0.6827332417271985,0.9362219720937524,0.8749763398318242,0.8991788878401348,0.819155766716058,0.576279787395082,0.8575171907334318,1.0,0.6768626819974357,0.7729858321646645,0.9306754034382845,0.9024699563522312,0.9246976524459707,0.7254719817694113,0.539859307947097,0.8741749085178352,0.9029563107895191,0.5502240489088228,0.816511523249551,0.915662335260798,0.9211541520412423,0.9437926561547427,0.7347307430399788,0.5294121509664396,0.8441078435371439,0.8827534471293927,0.5266122090541834,0.776974586812865,0.8799800141513363,0.8741006547808761,0.9204707744010099,0.8613929715218944,0.7797918302409741,0.7628715396087751,0.6590828826670614,0.05689369880092121,0.1649508120545633,0.740743179824968,0.7637742727728094,0.41154152292721546,0.5733200902843141,0.8462279902151315,0.8097238469514147,0.8162536196455425,0.5211027779735398,0.0,0.3823959591279529,0.8341894740007656,0.6523425361958544,0.35674928479696577,0.6732387324046178,0.836658505504082,0.7841142996946942,0.8291623953416947,0.4725142078362339,0.05356940490340234,0.5468720698384919,0.903169187638861,0.6485687211347768,0.4270362525182181,0.7430124725738958,0.808576965745281,0.7728617841892254,0.8063290996051391,0.2747942047796772,0.03731410520427403,0.6163786863483764,0.8491511250976638,0.5288935941173127,0.4289292395727955,0.7629464838114917,0.8020359821239222,0.7639091388079797,0.7707536557111845,0.2313753254064741,0.05889137265130184,0.648334536000525,0.8504098162451643,0.5104474461410704,0.4555538929459919,0.788037526746963,0.8264988345787727,0.8063547068229076,0.763225190668988,0.18376354119746408,0.21598175144187604,0.7880768761999604,0.8179153942145367,0.4677733334924574,0.63250549866701,0.831647216358602,0.7719017572557503,0.7635689802245902,0.7045016133568489,0.0952922862637422,0.05408512447120284,0.6520951494208549,0.821843567932456,0.46405463255486135,0.4372135061073896,0.7836074748725683,0.8128921333752892,0.7830415060843703,0.7329921746572094,0.15442515665719814,0.17408763732733323,0.7553287111998701,0.8208214519043491,0.4419793930725149,0.5269639994580491,0.807724103274599,0.8069996630114673,0.7791131769425976,0.7468149691415995,0.17475647189123888,0.10428896516531738,0.7032292070135062,0.8486169385911113,0.5151674635927046,0.5636958816724933,0.8255567971251305,0.8033882860514416,0.7796993813118331,0.7046157458382418,0.0877171742292,0.07569348586572167,0.686909139385981,0.8119756729850258,0.4465772122521958,0.47041347720380333,0.7653042297344927,0.7787630731142348,0.7591081176727315,0.7407601309905525,0.16615686036633148,0.10820837028557317,0.7056058145490094,0.8386160869180386,0.47881476008608104,0.5071629446922814,0.832754103832237,0.8557787280333797,0.8323774635855381,0.7539621223907371,0.17442216438485714,0.2853160608242167,0.8416530464936871,0.8146462859860755,0.4302151469764022,0.5328789576499884,0.8004650017039299,0.7730530104908091,0.7491813618526844,0.6542744385606132,0.07109097730545999,0.21017384378483595,0.775686202037968,0.7676582165818244,0.40496551495957833,0.5981889725158824,0.8394487022468362,0.7914133294214025,0.8054790836644345,0.5524356577152125,0.005128528329866544,0.3423166157423103,0.8410249775180962,0.6444906799522738,0.6608753997251791,0.915324578817692,0.8847419371376417,0.9243766263922337,0.7515505894931529,0.5400071278649925,0.8700585222933963,0.9204788011305252,0.5783781995111035,0.7991920847316396,0.8710058275265715,0.8727661748250926,0.885232983535547,0.6376439595228236,0.5956958155656249,0.9431442068135829,PM
0.9436337072462093,0.5844377150317928,0.37737929258451075,0.14033619289541344,0.0,0.029353190953423258,0.0723547201225947,0.4191823740308491,0.6773748682819929,0.6268164615005998,0.420773096797193,0.30895935494291926,0.3695407957593284,0.3226224090023617,0.36996190004480445,0.6031933558418374,0.5131626582856317,0.36201327223778357,0.3176872793072216,0.33749102304714773,0.3383686424982617,0.3382060272357683,0.5488557544222061,0.5511375885710423,0.40146420867816124,0.35128010302377577,0.3649137594634704,0.40870501885430066,0.3332999493114297,0.47501266150281696,0.6250387237486144,0.4492434148351867,0.3573736626482127,0.3150475998197466,0.3755106896073266,0.3030559683009857,0.41559270733831655,0.5622943959105302,0.41574325569963655,0.3743057693185836,0.35371463063423203,0.39670689354600785,0.32119094622175215,0.38961185798425024,0.5832922994616685,0.46770009994584205,0.3826327523542252,0.3517206511203548,0.39503914403184703,0.3695958260385561,0.30174681170639284,0.46325829475586344,0.6057472199053153,0.4308305441838276,0.34938570776301425,0.3144120716655392,0.3783770076028148,0.3347707288698616,0.4159722178825014,0.6113930290187417,0.47554158580799166,0.3931673921236212,0.36293667928632933,0.3946582944006254,0.3549044134938675,0.34724342651595475,0.5246514544221896,0.5400422870781942,0.3832252657879831,0.3340230540533784,0.3605955636790852,0.35188334886037476,0.2773886017698839,0.4777213083358465,0.5605409404493638,0.4087507369317911,0.3623478680354211,0.3901369623211419,0.41047638935629127,0.32852386686274526,0.5036744148343875,0.6214912490242468,0.41891167339933544,0.355199372252645,0.37778207712251,0.36842079254145466,0.2897460730894661,0.4714282627908304,0.6152033884055097,0.4582435882651503,0.4135470323523007,0.4221898844312104,0.4232069030546093,0.32539095186044253,0.4437093105763279,0.5413029760373993,0.38839684831387267,0.31869532789441557,0.31967132018368627,0.36588980975720276,0.29854349648237344,0.4553195479838279,0.614957576876209,0.4292946623281204,0.3723001229395422,0.36032378078606575,0.39796730105947864,0.3053754179821331,0.41167978455125365,0.5632588443936211,0.4410664818058634,0.40829233769223316,0.37374642416837034,0.42721944223801644,0.3649261692385335,0.4138059375068286,0.5771207364421169,0.4554950412654679,0.3887604060339447,0.3442461908782799,0.3794992478411623,0.3102216066256167,0.4188269182579223,0.5749747415458826,0.4538112629438298,0.37650285853619225,0.3971044130721939,0.49821273731226823,0.7140247948208445,0.8431490781677455,0.676178612522834,0.44158083339853293,0.4380773124726729,0.4546575039059446,0.43453298407296526,0.5113814746461691,0.7183464996344524,0.830812140403296,0.5624285254699828,0.45682541554711653,0.5194813408023458,0.4677040384227129,0.5060500894622657,0.6253594186734386,0.8815479740763763,0.6708984159949898,0.4300046020285002,0.4772295920619056,0.46759895770496085,0.43210431955863227,0.5061543767276784,0.7754806777954348,0.8044926250105959,0.508743696383875,0.40778092772188357,0.4692557147069021,0.40920511936657444,0.44674328001141683,0.5817882546010846,0.830449515533104,0.6581866357639647,0.44812253209632,0.504909456548619,0.5326721181201401,0.5058737080647484,0.539296212686065,0.7051534519732812,0.9075898213070421,0.6349017237854757,0.408576347417124,0.46018345720600484,0.4720554304038669,0.4502892659126525,0.5359497050139659,0.8451044847536635,0.8066500553973168,0.5075594881248646,0.46628086273350977,0.5255164922609494,0.4634922202749756,0.4910844655626785,0.5974278739926988,0.8548859870114551,0.6625217773648977,0.4183976344537941,0.4441849641729152,0.4698653174632712,0.4320897925233269,0.5495717500338326,0.5625431917222636,0.8061715620169436,0.8224451512188926,0.6194745905582888,0.4436093703072874,0.485133896475753,0.49677366397563594,0.460290237820697,0.5105333575789528,0.7657839158863293,0.8385857198547981,0.5332153169986773,0.4425215690954527,0.48046033721273806,0.4194218425897094,0.47516829792580983,0.5492706543359498,0.7629291296971639,0.8647391322433089,0.5744854567530662,0.4208030431045904,0.5024030887254192,0.485450014683809,0.45814219965228054,0.5129678673479723,0.6890444107126061,0.8605257410168115,0.6669899810490332,0.457217981995067,0.487867427672819,0.4754914504007366,0.446016626257689,0.5085647460541391,0.7301011648004554,0.8325928307505222,0.5506373122071748,0.3970659228345981,0.48220931993677807,0.4554589156468718,0.434693383669734,0.5122906100944671,0.7354208148483456,0.8581980975628363,0.5812612848716001,0.45959483510219323,0.5417059291567026,0.5377760578864592,0.46928646888028736,0.5209539493453685,0.7075240000013454,0.8646927115345382,0.6119389226587577,0.4341213767559702,0.47796867704451174,0.4527065743095444,0.44356504202161684,0.5235957431086078,0.7200818495478933,0.7623077175089965,0.5032829976014934,0.4387562307777664,0.4754850376203392,0.4140611775371874,0.5060386971308102,0.716980441321041,1.0,PM
0.9999999999999999,0.7915619550998724,0.7404035813714888,0.679792984162436,0.6162437479146367,0.6384886355256397,0.4541037067594935,0.2600169481634885,0.4780913813055988,0.6824341216577806,0.7656651466545171,0.7953582921325001,0.7172012665333453,0.7434085434313925,0.7336372188546457,0.581960086352025,0.3391872123061773,0.4963840521018471,0.7286802462081835,0.7464132109774021,0.7332381173631463,0.6842735237851308,0.7310905127650468,0.6865667653791169,0.4468774343223051,0.5221986272584079,0.7411584000333805,0.7561899403596267,0.756620431172243,0.6849810368510681,0.7093444442427222,0.7511848222259813,0.5632546103435753,0.4065072040152101,0.6267858970578263,0.7773659886366878,0.7729581957348782,0.754931633074413,0.7231110411831071,0.6836590101793668,0.7327134480728855,0.5620805122327975,0.4742566444724299,0.7120185751270746,0.7826770346318715,0.7530571458959386,0.6724905022094195,0.7410149846656856,0.6701123946271698,0.4404323435936883,0.526461614891277,0.759370181144429,0.7889077524556113,0.8166281107128109,0.8047599455803708,0.8981559171616521,0.85570919819823,0.5969920670084424,0.3232317141269605,0.41972459672413953,0.6353697347073123,0.647476085293326,0.688966729128433,0.6831729851597491,0.6423996192576272,0.594722774862042,0.5354435717203342,0.26901034770788645,0.008133203839713277,0.15255500298467972,0.4893366280101249,0.765407343460447,0.8623452902590688,0.7624486137881631,0.7782946782569263,0.7534093758672858,0.7334693702100389,0.5275670163644989,0.20794243382778443,0.20723987309193403,0.517899059108417,0.6931911679303119,0.6382278530517761,0.6751216398535395,0.7383154775851896,0.7170798208748957,0.48153059444082313,0.16811189743862942,0.2080189511211884,0.5275139091118507,0.687463147235272,0.6283563383680312,0.6939516599972541,0.7150093371633609,0.733669648505399,0.7170794380839144,0.4742629882448418,0.16670641002369635,0.23325455027173936,0.5570335921614137,0.7048116986723617,0.6398495305706068,0.6650279801495654,0.7167777450249834,0.7170929986515152,0.6249879546382008,0.3098580549784442,0.07063334436379431,0.268693473009208,0.5938217593014793,0.6971153674191047,0.6381135835051185,0.686652501298003,0.705817212389059,0.6875777198173333,0.45419472921387216,0.13480361128348062,0.15637670190082242,0.4792494528355168,0.6766493694712229,0.6927795073746797,0.6609445050756045,0.7452607193208517,0.7326140846608328,0.652976812432419,0.46773182925007417,0.135458745067907,0.0,0.2783560850442912,0.5546366023681503,0.5762135070478355,0.5928354781780106,0.6856178127594775,0.7016347102719661,0.8015992337894805,0.9743072749902427,0.7951744349924393,0.5915810332188779,0.3457832554562523,0.260196933590893,0.5062302828803379,0.6687646426464487,0.6605190064545002,0.45664748085231577,0.16268409647675874,0.18709848837639942,0.50647673458224,0.6735013196909726,0.6732138377123255,0.7207869005622883,0.7749489340073527,0.7316863213272388,0.43056378289992003,0.2344102758260077,0.4730135627899268,0.7465611972448859,0.7449094135703122,0.6919915318625925,0.7595713630457296,0.7387978474179492,0.7252913098475823,0.5576205158264832,0.23301142214072557,0.15038488946125583,0.4483353557797547,0.6759670534449701,0.6386661011592293,0.6528851526276734,0.70008986548524,0.6998190891293997,0.7098078613935485,0.5877362344960572,0.2885185525895403,0.26926956856773154,0.5567766349671192,0.6542494637289665,0.5878287146257849,0.6541954751026869,0.6611050249637128,0.649504704163118,0.6495367045743999,0.4446764877784375,0.13646026600075356,0.18039694058848188,0.49244578972820297,0.6998808939104196,0.6512840334619975,0.5939805737902665,0.7234464470979042,0.7462179830563623,0.7153570160309753,0.6989818449350388,0.681935421014548,0.6181850871589508,0.32978449536055277,0.06500997726972868,0.2124389956018271,0.545710028149826,0.7645977744198903,0.7335653967963304,0.47317294596495296,0.36143017108567843,0.625619594288905,0.7377411657677188,0.7373029842812394,0.7480923094324857,0.7625770076321624,0.7921034402282042,0.7514628919741676,0.6448882725118962,0.7204441969118428,0.7336360061420614,0.48938580489147876,0.4466065615724979,0.6754810529944938,0.6920345264787783,0.6918455550719743,0.7098979004425342,0.6508607756612209,0.6848538889985863,0.6863533189136569,0.49820186920544274,0.652577740527614,0.7681517884127126,0.7496139004887611,0.7386772850510687,0.7312792679260013,0.6813236354587281,0.7358293337964995,0.6151757522645577,0.48637634469236835,0.6942886796206381,0.7760425399851371,0.7870136814775756,0.793402089544221,0.7379652438850607,0.8174179915710512,0.7820048843677366,0.5605493040646511,0.6744041850179442,0.8428861980886101,0.8047101925370644,0.7454730077761594,0.7335625080725786,0.7048031417533837,0.4926699274168308,0.368037919639121,0.6197500399301284,0.7199430565823391,0.6922535042072172,0.47930622874285034,0.3168713226673553,0.5166091772046187,0.7431752000511359,0.9946042693744123,PM
1.0,0.8182792220170945,0.602321155174131,0.7307886660274412,0.8366198084878596,0.792377345034744,0.7975976423258138,0.7514631985893001,0.738770401943099,0.7957525313065905,0.6895163348829365,0.6928047707612635,0.7907707706131835,0.7739210372759553,0.7836089925275675,0.7444361080604982,0.7620213285064801,0.8217227597360328,0.6902916952827833,0.5934883152217247,0.7574721957277959,0.714618756678526,0.7102243627136147,0.7161153727998488,0.7045285787203144,0.7812897503654703,0.7476156919543646,0.5528726809920006,0.6308673658650767,0.7746166570818918,0.7504674120382853,0.7794391488733068,0.7896445661373319,0.7633249044112185,0.8150515293232505,0.7080049355857694,0.5855553608414381,0.7551940574369003,0.7779288286391315,0.8030531514880306,0.8157225809741406,0.7600596251247598,0.7020197828718375,0.7448771855657874,0.6023853583033454,0.5317932505100227,0.7176169548727704,0.7210177936503537,0.7264910454427143,0.7183198786569125,0.7625657647738469,0.8495719636518024,0.8408551942440594,0.6508074209435988,0.7150360142162755,0.8606530467150486,0.8325303631317338,0.7863834508318612,0.6985377784750297,0.6763561394252593,0.761782519957225,0.7144742616570265,0.5118798938648508,0.5897755579807729,0.7397546660751555,0.7295539674940166,0.7469071787894181,0.7053393182217915,0.7182379289557497,0.7468879164477893,0.5745792623068382,0.5178216396533346,0.7131509560789095,0.7346378161408387,0.747816259632547,0.7761427161629433,0.7575363773379762,0.8268266568513725,0.807216473891776,0.618479589783981,0.6765206416246736,0.7825814705778011,0.6885818837622188,0.7012383226340557,0.70849582455246,0.7752680761103365,0.7880304144196038,0.6929269513864524,0.5130595463189838,0.6383619668340963,0.7125439653593173,0.7105416404599707,0.7359790752582971,0.7473629637615951,0.8277263920807825,0.827610368780298,0.7953580375434912,0.7106712932931771,0.6973186928423536,0.678422156125154,0.6506235992479548,0.6213259979836723,0.3654050819348353,0.2763877801662015,0.5189102343787853,0.7124018867777322,0.7426063078259255,0.6728750864158592,0.660265106362576,0.6372283591600572,0.7014771374720543,0.6718431359527031,0.4094455252106978,0.4088930589771516,0.6754208057020716,0.7872675592148295,0.7186510468543779,0.7293577039806192,0.7164769048747219,0.6846463156403553,0.6417818194609628,0.388762681671401,0.24208163114132225,0.4723470595297555,0.6923904755554215,0.676542404936465,0.6565563629324431,0.7077510655918493,0.6933677382088095,0.6866679581895496,0.5660019145268149,0.30346058593965214,0.35279448118031226,0.6214480561464939,0.7045859170348647,0.6237285629423606,0.6506685628716105,0.7369771688000859,0.7871779585722318,0.8045353229642291,0.6183544022158936,0.42274002530888627,0.593767302545223,0.8064599590293791,0.7868578375305584,0.6982817036375244,0.6762416476852613,0.6868416771810142,0.6790464019631968,0.5537426492077542,0.2842587112099347,0.3106959593375907,0.583595902120003,0.7025245492178349,0.6452195518836246,0.7225940982872514,0.7724269779342676,0.7536928045093212,0.7272042770301466,0.6635237508396326,0.3995562564957344,0.35998337751964943,0.6190575987372966,0.7724046563585862,0.7212156868969919,0.74081097943807,0.7414406530400877,0.7055928446867761,0.716508271229715,0.5523780673413659,0.32462194114114057,0.46508266711753227,0.7077134523279132,0.7277738610745119,0.655105274632118,0.6754944446021882,0.6722585196694655,0.6533407319139144,0.7058951347289835,0.5130603853548938,0.33978177369258705,0.5471876413019636,0.7596203050218511,0.7526262080195554,0.6831746263596021,0.7260239130046997,0.7398726224746195,0.7239352962048453,0.6994781813981987,0.4430252784151863,0.3198809771984806,0.5606283139734185,0.745297135818723,0.7018337431334216,0.7021996498338645,0.7535695805079801,0.7482152327698062,0.771660826930618,0.6356787855023338,0.3950410846149424,0.5111492472537,0.7982635589266702,0.9596418328733993,0.8618753125340317,0.7511312969949895,0.7935168526413547,0.86199007111492,0.9279372094812557,0.8054353925254905,0.5402269747598347,0.2413760321548049,0.0,0.11301787269116609,0.29711841612492124,0.2731263558342322,0.3294794697323548,0.5305176918071879,0.6885978086078046,0.7482722610281032,0.7405329309768958,0.6762309103474542,0.41089499420704706,0.36852243011621516,0.6277926748289231,0.7445319284679959,0.6791254681727408,0.7073529379183594,0.7645635012782033,0.7373061505891016,0.7637567190950669,0.7802310999717619,0.8052291883858205,0.7997338852958877,0.728180598799598,0.7542199712179685,0.7889122428625608,0.6322157208288459,0.601222789139487,0.7871233538243787,0.7869212176753944,0.7899355613365338,0.7121925887767313,0.5379878029031526,0.3553450808864231,0.3244052429095468,0.34078147527900576,0.24961739206049655,0.4604680200363069,0.7404086297281902,0.96064572085572,0.9613524220582119,0.864228144804565,0.8245764918885261,0.8062222595195956,0.9607558029851453,PM
0.9374653268226285,0.7460092552222855,0.39864077863509406,0.4369469815657685,0.8178347875941658,1.0,0.6926268393708686,0.48612243444968195,0.8610187564758705,0.8159999432538911,0.7056830094282445,0.7587730519449587,0.33540888085916887,0.35821027467577826,0.8347451094523768,0.8014536657850369,0.4325401019544799,0.2012704979579958,0.4931976529207107,0.7503123099393387,0.8863892794016706,0.5412745368482828,0.05279920465797305,0.3186790154841814,0.6929327027667989,0.5917879243624142,0.45386459497862974,0.489813490579571,0.5630878369592294,0.6102946885384113,0.1524226390153145,0.19847806237524956,0.692930860317889,0.7639169321131831,0.6370907839785298,0.5782756824613426,0.645121914345812,0.5296942533142803,0.07805390334690188,0.3379815115369955,0.7592995838953955,0.7549384762403077,0.6095196721746277,0.5274269797232245,0.6143763253518144,0.4741996256178269,0.021362684170009416,0.29510612093980004,0.7532452255585493,0.7784674813640771,0.6247984260689368,0.5320061721318736,0.6026991040644627,0.5608544084440297,0.08398026830774352,0.23852706181855154,0.7520310955211604,0.8379038502566005,0.7011626119485035,0.6282629629010268,0.6179949036740924,0.6069236381749485,0.12660622293706103,0.10263695827757768,0.6201354204136678,0.7990728253445734,0.6859966074192054,0.626874626924629,0.5536415729442199,0.636517268351692,0.22622080555737467,0.04340387929323297,0.540900468471079,0.7746938103298735,0.6658763435368638,0.6527267361740212,0.595615703325449,0.6802706028876502,0.332537689786228,0.10893344372413782,0.5809993251220846,0.8084594485558139,0.6936953670143868,0.6366427187961463,0.5477287306907019,0.6633298998033865,0.4278678973504899,0.02719549226177076,0.38887592621892386,0.7664759404239798,0.7189585821446336,0.6310437119847623,0.5550115473057593,0.6304469043602108,0.49409603284759873,0.02739946728769649,0.25714196926264066,0.7254106856077818,0.7969851192623496,0.6635984028518274,0.6100126299819912,0.5493879897014131,0.6611803952569715,0.2916018393447173,0.09001748190624781,0.5762681222348496,0.8315382761401264,0.7395358490316659,0.6511668475125916,0.5372252511927242,0.6156451209538436,0.46028905052474034,0.05484127987393084,0.39364236997762436,0.7758958246130065,0.7286032192432179,0.6162067066682586,0.5187306335964612,0.6201811480401975,0.35093238825255346,0.0,0.4166521091429183,0.7773816900395616,0.714760030093168,0.6419246402583298,0.5553449745496382,0.6546980708106056,0.4973057611727003,0.05010125312761682,0.3060678335302103,0.7480755189370494,0.754513938859148,0.6354742273923608,0.5549906750370455,0.623084930363548,0.5288837295023519,0.06371924628754799,0.27008978733469347,0.740137981843692,0.8532948450915967,0.5296978813849433,0.27866619194401343,0.6832709695871362,0.7191139650468976,0.677469533479107,0.7270396897462765,0.8382299300044052,0.8624865375433415,0.5040854838617368,0.2781834578248885,0.6970095661049989,0.7426849356073162,0.6928669610471019,0.7475151016613153,0.859877543036156,0.8649683929472767,0.4798218629293358,0.22874029655490702,0.648489026054925,0.6967420278604246,0.6570721741077512,0.7285009657623109,0.8746537955372866,0.8813083347380513,0.4976240801700764,0.24410520525473745,0.6668365732491393,0.7480859878291022,0.7292120208778559,0.7577898416235946,0.8629912754951747,0.9194423509460923,0.637758101419764,0.2823854922020872,0.6401037581027187,0.7333926423459491,0.6675712982683368,0.7407572231944837,0.8572355161105261,0.8477941485321985,0.4510517951011015,0.2404635502910839,0.6810675841098046,0.7319148264982438,0.6831443492250684,0.7375483623546701,0.8648244998777757,0.8028846052289866,0.3675955085430709,0.3886368458101517,0.7551530782897378,0.6732943940382117,0.7200713571363093,0.7579192137188735,0.9000161597002063,0.817986561386765,0.3810609256085109,0.44085564795267906,0.7946542405379731,0.7168716710519116,0.7453171883651866,0.7500753705016701,0.8667506846399666,0.7354016667389267,0.2817747392270742,0.44038612855793824,0.7674524822172772,0.6790590763510247,0.7361371982400162,0.7873195110337381,0.9035572365330569,0.775951066821539,0.31707129227383524,0.3999101173715873,0.7707807221949929,0.7182505224133262,0.7581641878565253,0.7938335034609589,0.932543550441308,0.8712388854615054,0.4137765870552914,0.3574199956863042,0.759228692623982,0.6875840478483695,0.6603537860226822,0.7544564459638665,0.9055903199620965,0.811222279378895,0.3580639132837895,0.3602732382239804,0.7617188099029413,0.6851492178074481,0.6689263520253426,0.7397847047128567,0.8992100813672321,0.8202410785357057,0.3737151345840011,0.45159136077450057,0.7992372316479148,0.7054064632317787,0.7163695255990219,0.7911274885086232,0.9000139555814473,0.7194532414691768,0.2991786787776354,0.5683491509664966,0.7776217323179644,0.6239426381946647,0.5851805742136809,0.5937514079768076,0.7788760595179705,0.7067213804023256,0.30897702417319906,0.544570987960006,0.9767844545470443,PM
