0,1,2,3,4,5,6,7,8,9,10,11,12,13,14,15,16,17,18,19,20,21,22,23,24,25,26,27,28,29,30,31,32,33,34,35,36,37,38,39,40,41,42,43,44,45,46,47,48,49,50,51,52,53,54,55,56,57,58,59,60,61,62,63,64,65,66,67,68,69,70,71,72,73,74,75,76,77,78,79,80,81,82,83,84,85,86,87,88,89,90,91,92,93,94,95,96,97,98,99,100,101,102,103,104,105,106,107,108,109,110,111,112,113,114,115,116,117,118,119,120,121,122,123,124,125,126,127,128,129,130,131,132,133,134,135,136,137,138,139,140,141,142,143,144,145,146,147,148,149,150,151,152,153,154,155,156,157,158,159,160,161,162,163,164,165,166,167,168,169,170,171,172,173,174,175,176,177,178,179,180,181,182,183,184,185,186,187,188,189,190,191,192,193,194,195,196,197,198,199,200,201,202,203,204,205,206,207,208,209,210,211,212,213,214,215,216,217,218,219,220,221,222,223,224,225,226,227,228,229,230,231,232,233,234,235,236,237,238,239,240,241,242,243,244,245,246,247,248,249,250,251,252,253,254,Target
0.7146660848328856,0.7132697133667711,0.6979816870641746,0.6869446666090526,0.6863849279984862,0.675290612911094,0.6436834293715463,0.6213438713259996,0.6370245896084941,0.6712246657529881,0.7018898281274086,0.6959090903469562,0.6275798919199882,0.5465029443740634,0.46509760697655067,0.3801856725593906,0.2963935593633755,0.21360665791708655,0.12777894568611803,0.049162129341715266,0.0,0.04597552115391035,0.12668049857154573,0.2155371638887269,0.2953745031285726,0.38301434829893544,0.4725860430161075,0.5530742253172904,0.6385030862747716,0.6880261512562174,0.6733554764249894,0.6461877163317176,0.625837081353932,0.6088650741532422,0.5940959833133601,0.6111002071668403,0.6388183613054965,0.649278924355204,0.6580871068113721,0.6601504071595217,0.67437270087915,0.6859100395229756,0.6849748059801908,0.6710145252351956,0.6576582929902861,0.6377537133492435,0.6098236478193424,0.575746582207888,0.5442882271187444,0.5374842830696573,0.5575945458841038,0.6012251170787659,0.6609645239457007,0.7233457421935852,0.7648461855277418,0.7229477599036531,0.6437053622748865,0.5609591536810348,0.4778015930109156,0.3923041602632742,0.31166503211859076,0.23287293421844524,0.1952353230997208,0.2559994548619444,0.33647285788910275,0.4221690227745116,0.5118103394647247,0.5925902853245233,0.6787601049482002,0.7676293149679065,0.8470399096839583,0.915090968436916,0.9399468876054227,0.9581856799416684,0.9650592463308512,0.943741266695935,0.9091806528298314,0.8745810140033619,0.8397016848226337,0.8235210033684208,0.802074964413187,0.7707660351079915,0.738322933788101,0.7288386872421173,0.7307974691345847,0.7248065665931638,0.7056467225469689,0.6965852397508521,0.6917116650798627,0.6826685976347708,0.6577632496376793,0.644885364771324,0.652014394914511,0.6870519940312712,0.7121897278368248,0.703178320859762,0.6330198350872822,0.553335602962856,0.46709118306200703,0.3848081046634937,0.3004458915607011,0.21420211967251124,0.1353900306128062,0.07180170436760336,0.0951452967567763,0.17769340897225483,0.2574646661575428,0.34657896242719755,0.4364183817566525,0.5177331079337517,0.6032032705445569,0.689640957802409,0.7369002390462713,0.721492887534595,0.7280857468685789,0.7279963002083571,0.7056833456186686,0.7079993072476312,0.6974731201546784,0.6698745312151579,0.6541956307902044,0.673556529460438,0.697883186183337,0.7006072481613301,0.700614450128352,0.7003278136598403,0.6946260619009379,0.6888209709321018,0.6863905595302382,0.6756993156219198,0.6523985033642841,0.6322221684344866,0.6438327554031595,0.6809743899361906,0.704768073473639,0.7369784842864939,0.7587604669329442,0.7511106761963571,0.7119996840719123,0.6837666731505829,0.6920591531560787,0.7138545312478473,0.721772169338948,0.7324350242042421,0.7389416833364726,0.7528219978577957,0.7479520294767015,0.746519931574362,0.7526206325466449,0.7434335642382937,0.7368210910329032,0.7098600402613859,0.7148795241349613,0.7361151845404972,0.762422765421406,0.7628912965912715,0.7634780204495264,0.7789486543213606,0.7826240494367893,0.790313742735633,0.8249715900421777,0.791524551191275,0.7175063492750022,0.6325285103952656,0.5526205947081568,0.48326494155566935,0.5262344336658231,0.6068612003642697,0.6880150294033271,0.7569961802051488,0.7792065823044048,0.760806211351422,0.7335655043303009,0.6996902229103725,0.6933649798130508,0.7108717213524309,0.7320394595486699,0.7399071422316779,0.748565266988175,0.7629198351274205,0.7756760603781518,0.7670553459139879,0.7755166001013165,0.8082050924435211,0.8372558934195082,0.8609578349651115,0.8812583741773674,0.9124726323115409,0.947357679408358,0.9812588402288831,0.9999999999999998,0.9998791597403474,0.9877225206212417,0.9869306442025685,0.9859533818147972,0.9210310095930299,0.8422910599610443,0.7544054376609444,0.6667396315850838,0.5931918595410883,0.6032834606722497,0.689466162436754,0.769745304578328,0.8447814197601893,0.8638503767802435,0.8172024434733289,0.760655548949013,0.7020900381143684,0.6421153089829132,0.5958191934708357,0.5842225530690202,0.6110566187053081,0.6448061470892832,0.6727181191606102,0.6939008364636277,0.7065468695033583,0.7179080003496396,0.7202782919903121,0.7184129281704295,0.7040512013638971,0.7010165700930584,0.6993974612362888,0.6887028699472759,0.6826428948649512,0.6669824480374043,0.6415350859722604,0.6509843880783752,0.6675077030472074,0.6913854207025174,0.7188431721007034,0.7522251903403003,0.7798466617082063,0.737680781084417,0.655653438411312,0.5759661578313422,0.48815221743802595,0.39876052567047915,0.35739249297141207,0.4303406325081103,0.513035808460087,0.5965528854187043,0.6775050714924393,0.7452725151262987,0.7542899367837548,0.7399989350977212,0.7096238555894423,0.6735185134735764,0.6792716585322622,0.7082552958380266,0.7280686143154489,0.7290704792904965,0.7314538311063237,0.746984090158622,0.7594188006957616,0.7606839150590907,PM
0.8106738609394015,0.8094545277999945,0.8026830254126462,0.8019697266229358,0.8079085772708798,0.8014352334391202,0.7609693419465429,0.7525162223028894,0.8049546031720247,0.8785329358813683,0.9012738803655744,0.8831468829500388,0.8030832335946703,0.6723307713445168,0.5342452723717481,0.397098422702169,0.2607279470391006,0.12857671102464563,0.06713714820345196,0.14506837833131447,0.26740149936794344,0.4071086501245471,0.5597591625682288,0.6986066584166859,0.8135278950656368,0.7739416756602546,0.664467782511482,0.5763141845851854,0.5328190707144143,0.5086452121969476,0.5267971444228179,0.587566840900231,0.659834001428778,0.740687247483355,0.7903545926299036,0.8099092715199672,0.8136652722942155,0.8131609161670239,0.7896612622271761,0.7284194422833474,0.677991107001715,0.7014866394000703,0.7679039148982931,0.8358631280834996,0.8694316777258799,0.8678158115881707,0.7836771194621992,0.6534806698736331,0.5141182033145228,0.3729977593962728,0.21859128719946463,0.08100201259178386,0.0,0.0639018996360412,0.2081673705587681,0.3504123717118688,0.4986609954925778,0.6456284309642304,0.7815969275078039,0.8560837085423043,0.7812273630847537,0.694191058285067,0.632063121740309,0.596314071233901,0.598961217639066,0.6445841462091426,0.7177118670925653,0.7944396294979681,0.8436861276902077,0.8496167774145174,0.8379473753520701,0.8084827578473912,0.7916299215938323,0.7676443949292722,0.7119352898530931,0.6708596969380567,0.7006326284851219,0.7741049716509392,0.8210239829734616,0.8447893681498377,0.8241407993684522,0.7107496251711156,0.5748870656260952,0.4403246753483887,0.302618880643728,0.16379987636748128,0.050652252989744184,0.08459296927140336,0.21922388522695702,0.3676354945410889,0.5144726150376626,0.6573281229868728,0.7946156793879031,0.8353295905702058,0.7392942688730972,0.6483487984411171,0.582203509803342,0.5428925233473243,0.5463942058156621,0.5838778700398666,0.6565456418427815,0.7364102790790978,0.8008384053790998,0.8029031515686165,0.7812280573997334,0.769780865671422,0.7732610250722258,0.7686695481794485,0.7145971978598165,0.6875569101282002,0.7275870208583779,0.8109328890383813,0.8544565222906821,0.8765987471760277,0.8388549847058466,0.7172805914691613,0.5690294512624625,0.42819841749750376,0.29174706575658105,0.16263126526795535,0.10556270965205572,0.19925173985936562,0.3468840366675088,0.4908864601099432,0.6365193204831652,0.7774124568224425,0.879263747893134,0.8115471477363676,0.7216032753692248,0.646724994197847,0.6063668822776642,0.6085764802721583,0.653734986255734,0.6897168556938853,0.7644643340618682,0.8597132975962949,0.9675428155813459,1.0,0.9026358238712642,0.7799670881243519,0.6661459824633855,0.5295688762197641,0.42957666271773887,0.5193670113941735,0.6555144205099466,0.786825902096103,0.9201249124355488,0.977455997587747,0.950464126179233,0.921545842273666,0.885056334225697,0.8141791450471665,0.7549947997452922,0.784064887988623,0.8339060346303482,0.8429724884647198,0.8293346620321951,0.8426038209765734,0.8615886720930122,0.8630809768059509,0.821775753283013,0.7469893068879299,0.6663307725342533,0.6075689046774184,0.6202217367944245,0.6715079468531693,0.7467139405578438,0.8613084432838298,0.9579549709061785,0.964681577690492,0.8674437727004047,0.7333575000627088,0.5789485086188657,0.42838377355197554,0.4027855241285998,0.5278562560330813,0.6641532391577201,0.7991594557851207,0.9228000786547481,0.9549408521443365,0.9106767464427956,0.8869149990422853,0.8566903237826002,0.7900469686719189,0.7496604087261529,0.7996344173940964,0.8508371016330196,0.8670401302813802,0.8821649176062349,0.9058564285947921,0.9196344566153116,0.9095510153524615,0.86470275889481,0.7836468084473536,0.7131205597210712,0.657360065736639,0.6628252900733926,0.7204243039755647,0.7996372044822064,0.8997626750552525,0.9930946939223784,0.9757020510698324,0.8581466502191089,0.7260584824296639,0.6144870949507362,0.4742652155333875,0.4385116623696841,0.5604713033466435,0.6973574545754362,0.8427078987069616,0.9655395454663456,0.9708996301032804,0.940227132716152,0.9123311105503689,0.870982985691148,0.8006262492178955,0.7764974362610784,0.8245710827730619,0.8724040326083284,0.8777543256205149,0.8882800866071681,0.8838543718822374,0.8578310887010212,0.8276505485429393,0.7652567382638353,0.6859015746093111,0.6127874493688386,0.572926456984959,0.5903966081918925,0.6409800287726282,0.7271112115338347,0.8512769821234611,0.9382498628908889,0.9133524988809727,0.7971009980799661,0.6462524913679202,0.4929228386934481,0.4276640379036998,0.5403997451619817,0.6771410417544388,0.8134658321724455,0.9259886728517,0.9644792628149728,0.9724383387967173,0.9698641646734494,0.9223806764899773,0.8489798369970978,0.8159522519545273,0.8624328098240657,0.8931578054322769,0.8808781744739265,0.8786341921946588,0.8800678865384475,0.8768039226005153,0.8878852234787056,PM
0.46743447688314055,0.5176291271796251,0.5350371971003592,0.5405663566702564,0.4992416587190046,0.4624331058210188,0.473515289662337,0.5160582434534885,0.5497238727595518,0.5281539325413201,0.5331293534983458,0.5519874503025884,0.5311707576139427,0.520503093734262,0.5474298755420167,0.5727507072882766,0.6294974817776601,0.7030896937358652,0.7197206946965043,0.6471299810754546,0.5675516799442742,0.4832260690996494,0.4024382770149738,0.320613951691755,0.2363952301102733,0.15698278897695372,0.08458998779152749,0.10142046023476536,0.17748817356711544,0.2612342060234205,0.3462932494310309,0.42908007041826035,0.5090690210063676,0.593780622076525,0.6776402624997423,0.7169891904358773,0.67351052724278,0.6482214301841448,0.6510000936954151,0.6568716664416206,0.6944537654555499,0.7495661299920545,0.8089166475738258,0.8598371851324896,0.8422351996201768,0.778709865038777,0.7148045496358172,0.6569442183457112,0.6151902185775119,0.6056744105753794,0.6255209467295771,0.6243891921231385,0.5979104065060853,0.5662356813465711,0.5268715383912842,0.48684296139227656,0.47844371237104577,0.47984806356163834,0.5250495398802136,0.5897099853004418,0.5648667190672708,0.4853952496494308,0.40581524418263315,0.3225057246689903,0.23742794731595174,0.1524111112197135,0.07075118243329925,0.0,0.008360065867625055,0.08408255163989453,0.1649895596617359,0.24992509731658885,0.3350058261669626,0.41849968504578083,0.4980380569566697,0.5763644211062832,0.5782493539057055,0.5197598531981203,0.49025687042149213,0.48393743885750473,0.5125742864404851,0.5778250882696726,0.6333297632027656,0.6854794763654745,0.7440928166089064,0.804049446776632,0.8638650521575958,0.8704063975996511,0.8111305915091415,0.7462494615771912,0.6861430697693208,0.6454245423858017,0.639455233947818,0.6665673141467751,0.700540439321148,0.7302150551727148,0.7338174732387887,0.6960187805368213,0.6759230871362462,0.7023003574135182,0.7206021795484302,0.7424022023447959,0.808732447583045,0.869881333912042,0.8322441553111556,0.7535352772774525,0.670525783219262,0.5880579692273312,0.5078469662576685,0.4245642340515111,0.34507625980618895,0.2656862754028124,0.2455472687641932,0.31082887646989177,0.39402276156799465,0.479075468187789,0.5618622891750186,0.641851239763125,0.7265260835689181,0.8011984359529806,0.7828467224115662,0.7151610858383012,0.6616662468388904,0.6147015665999577,0.5866381639498711,0.5756541130990952,0.6056202568507757,0.6584596322900625,0.7190264659555347,0.7852427934319567,0.8260020862785903,0.7830979169512396,0.7149923902231626,0.651210239111086,0.6009576374472266,0.5814825433557255,0.6034937748995738,0.6318218667262864,0.6510050018282029,0.6305013395351001,0.6107075380344172,0.639703957086368,0.6967075336960918,0.7622477414457659,0.8307419323662296,0.8634458515640383,0.8213598916180073,0.7571953079389825,0.6949019887706073,0.6389646367875869,0.6035819392099672,0.616038732455637,0.6523548881434601,0.7025782602161214,0.7659841619350197,0.838796784172316,0.914394484312102,0.9883080499216851,0.9999999999999999,0.9295809124101667,0.8478797905335821,0.7628612791496238,0.6794757947874638,0.6449510020321686,0.7120747444335193,0.7954783972157463,0.8729111859053363,0.9466695754536846,0.9883837464185113,0.9366666916150689,0.8586394190785424,0.7861245750257008,0.7579742293830064,0.7378251784823718,0.7104141366491824,0.7367814036833328,0.7664949294963207,0.7594045679182172,0.730176212148928,0.6983113355422276,0.6687757545080025,0.6858036530431345,0.7354384875184988,0.800203946438275,0.8677959051634995,0.9241253091803373,0.913243405329042,0.8560965843943297,0.7966341851402671,0.735299360958294,0.677312775590624,0.6294728646909743,0.5652877229378014,0.5165160159849015,0.5231816777149466,0.5693177887004585,0.6397045556897533,0.7183880980959653,0.7754319858760955,0.7426810564938323,0.6622852110675935,0.578535785945561,0.5238950469553524,0.5685553626677139,0.6473615264612068,0.7186434560496958,0.7184593499930904,0.648885475035519,0.570843607125055,0.5129931728842979,0.5051550242380315,0.5277080975461118,0.5697401878030758,0.6066506174716014,0.6337771445149786,0.6553467515432013,0.6480648154167993,0.6317525449518416,0.6556495093537006,0.7086323739503334,0.7744511713863854,0.8411189897780703,0.8985189089499571,0.8985288292761128,0.8459134999498065,0.7853851075537107,0.7278828899300124,0.6853335720413326,0.6785789179158802,0.6767491917500402,0.7158028683564565,0.7846024492664573,0.852171469506883,0.848904797349659,0.7756963070941943,0.6912754558888389,0.6065314342599547,0.5508824640072535,0.603404973452014,0.6823615538306581,0.7626777910270274,0.8355887921752619,0.8723952255144357,0.8196739411300339,0.7415223843546096,0.6611808927480748,0.5973739603508851,0.5710928342813418,0.5486439275376412,0.565716191529637,0.5814319145834065,0.5842291097037114,0.5870730037802067,0.5809298010804734,0.5823718319341494,PM
0.8140178095846184,0.807794879266879,0.808894782079957,0.8206110499758326,0.8212628710685725,0.7906874431788748,0.7558825244657303,0.7254808332128182,0.7137034733107857,0.7133901432480105,0.7176195803107352,0.7618924798848823,0.8272566348000179,0.8815797802012943,0.9161280754233403,0.9302066542195584,0.9409028588320172,0.9470136190554121,0.9622282721251627,0.9581521730831482,0.9212717112059197,0.8587980195499625,0.7834764802028238,0.7090668055004283,0.638833915084567,0.5830446086032575,0.5765046696186304,0.5853518909963313,0.5352652332671928,0.45544749946089946,0.37082703209646306,0.29429249360163356,0.209173857958598,0.12978783734860921,0.05121102436378755,0.0,0.02321973202337735,0.09444289069146272,0.17869980770217286,0.24314391118669687,0.3141437808418799,0.4003977859317247,0.48439764470334246,0.56120347667394,0.6412254599982445,0.6610170450259452,0.6473971226797446,0.6365539750943532,0.6332075136802116,0.6441414349257648,0.6641919802221692,0.6907369022444014,0.7167463153558098,0.715221272142806,0.679309333081392,0.653964078028358,0.6461652660820538,0.6460297541010103,0.6460297541010103,0.6460297541010103,0.6460297541010103,0.646037397422287,0.6484993229965001,0.6665205521007971,0.685878175901409,0.6803164901838314,0.6568083121648047,0.6543038593458002,0.6625516417178805,0.6894969958864954,0.6780938510244379,0.6131783981823229,0.5375508447506212,0.45365398614556396,0.3740044559357154,0.2934987222528389,0.20976022871437983,0.17030666211065637,0.21273890921756244,0.28701925994572974,0.3730519712165796,0.4537357762972387,0.5332282427994286,0.6196785834806289,0.7015708329076678,0.7702346411061891,0.7770954100982765,0.7591984444432722,0.7397613792347439,0.7281293470107555,0.7335417099043442,0.75478222456721,0.7846615467538716,0.8128764821899084,0.8250170038498401,0.7994660896042813,0.7736989027714307,0.7673135036083989,0.7672555592659835,0.7672556481795028,0.7677148691019091,0.7765631337594512,0.7806959397321707,0.7809850402215035,0.7887923711853355,0.7912256992527207,0.7506322577366242,0.6824545850651587,0.6277315347756762,0.5970170748468735,0.5935299922105421,0.6123942734657606,0.6227537250332749,0.5724940464202553,0.496457926937101,0.41970846553176355,0.33618493385750425,0.2560311016433934,0.17672086661969288,0.11174470006938209,0.12470543350366348,0.19315651804651424,0.26987982738824234,0.3558551607138949,0.4387748972865215,0.516300508580062,0.6012341555438934,0.6720188126459516,0.6902244864064684,0.6757003813907316,0.6650884179114918,0.6624085389170766,0.6887853752915778,0.7004958217216133,0.7031613309799225,0.7143830180380284,0.7293008116503776,0.72354751483402,0.6698982215052351,0.5918119367469805,0.5125814999037088,0.4318571330493044,0.34900607238221215,0.3436390773613116,0.4243190590089856,0.5012070841452794,0.5783753728944692,0.6431397855604828,0.6734911070153677,0.6615153334925632,0.642203391154635,0.6481032097869914,0.6902244316386865,0.7489688745296028,0.8105653195521054,0.8304864468915436,0.8265757034011838,0.8256980268317979,0.8159460277757835,0.812723541502504,0.8043098008861478,0.7996267517098283,0.7995824406433101,0.7997861907099109,0.809728100278291,0.8374924088172742,0.8629995265776611,0.8569121411026306,0.8348182672582192,0.8032224395741852,0.7793691209152132,0.7728496400098372,0.7809399425846777,0.8003926454607899,0.820868099813101,0.830985770770089,0.7885207090623811,0.7152097047832953,0.6327183561303633,0.5532611155737228,0.472589182576292,0.3934484403022893,0.4044342118673905,0.47929310545305315,0.562042335092549,0.6389245940695367,0.7139800151338307,0.7500460688874899,0.7329597241748405,0.7076482393104604,0.6927342574626645,0.7046859898936486,0.727529541922949,0.7239375651138469,0.704099271544371,0.6868297038422153,0.6786008057169381,0.680005339389121,0.6901869812022732,0.6917946867835496,0.6879185224137723,0.6813504474017889,0.6941494583629393,0.7205216774442207,0.7586578249124736,0.7653875153511074,0.7433916894713779,0.7182855630274758,0.6924442734547587,0.6753710320657305,0.6692481822498715,0.6795818120768049,0.6941714115391064,0.7165411163822111,0.7083660779045726,0.6428558763617669,0.5655069051276123,0.48463066095789054,0.3997196667105376,0.33355344528638486,0.2649518641877524,0.24058845660352324,0.3159768543588366,0.39296763208779373,0.47410566257404163,0.5459037173661379,0.6110679089339193,0.6298535181951201,0.6239042683677509,0.6605318721516416,0.7298226049206009,0.8042509708947858,0.8794060850368648,0.941811167808394,0.9830926085882761,1.0000000000000002,0.9965145098743398,0.9869987344168105,0.9755274515780281,0.9630719960014107,0.9499509729277136,0.922936979592633,0.8694098430045776,0.7982252096018538,0.7501673035155851,0.746507744431429,0.7567643388812957,0.7774491093216962,0.8128919669139283,0.8489702897537657,0.8722003262122187,0.856158951861387,0.8433403014020986,0.848817678345523,0.851549057755425,PM
0.6070605326174272,0.7022838356995633,0.8074835411709733,0.9079426901690004,0.8916416892718475,0.8043594133045779,0.706406710252403,0.6019134490038045,0.5361831311504632,0.4711920338067461,0.41834296895966805,0.39824876704738,0.36874250483561966,0.3729850668228991,0.37228728795039245,0.3717828221653754,0.3718819785608707,0.3600772821662499,0.35676045369313325,0.33127972282607576,0.29748270948482514,0.2185507079348863,0.16551581940327242,0.18391435373370335,0.25782748932098,0.34409825695101226,0.36659396444929726,0.36118837149359795,0.3898241348473199,0.3097299574972707,0.2938957381499767,0.3836020501521533,0.35582262271570464,0.2919708282876794,0.26369270060120353,0.24415031948482824,0.2390552836012132,0.2602829008095533,0.2963392845251924,0.3866869955572696,0.47939952221274496,0.5693155995613255,0.6706739634752754,0.7742653910402062,0.8078622067012624,0.7424568078020926,0.6549531410675682,0.5654592072655937,0.48130765153764,0.41588661415333306,0.3814935179259944,0.37004052577231494,0.33931800723396677,0.3513086919711652,0.3626310557786363,0.37028324132288315,0.372889091031376,0.38359114894367163,0.37713043937791646,0.32950785296873963,0.24505141662528285,0.19107799995575903,0.22028984127117734,0.2864624936817757,0.37565729273713977,0.4214182481230564,0.394043255223516,0.4149175229766371,0.4120623212821908,0.31533184196875386,0.3366286268354344,0.3659951803505521,0.3177833765084799,0.2892100828769584,0.2566182493078193,0.23750429369648973,0.23748796478654555,0.26271662585227684,0.32689804256189436,0.41562653332919375,0.5086257100879852,0.5972036943490355,0.6670410692735835,0.6239275710644518,0.5432842634902117,0.45526332513745515,0.3726819158365151,0.3068593437272904,0.2630384681623985,0.22435611687337875,0.1993620702046659,0.2081523455487302,0.20973372727192974,0.20961629862147468,0.19999360019525092,0.19930928543115822,0.16820245859603933,0.11609337314676882,0.02853767460020684,0.0,0.05137477466763318,0.13946081581391034,0.2189985413668074,0.2416742637050211,0.22092321151309324,0.24995313148024412,0.18939358006528462,0.09638314339568677,0.14937366349982195,0.2020593888108877,0.18331746644848135,0.1807023685611293,0.16456679773186256,0.1750485743516359,0.16327810302096513,0.20580656289449362,0.26075698595217034,0.3438070415907424,0.4403311221733004,0.5378501734523384,0.6142640649854485,0.6056915946586079,0.5204088102485,0.44510083446400284,0.38946200859342994,0.3484942446188324,0.3240578956108022,0.34603123766035093,0.3939322057477863,0.4222509220097743,0.47385504544242174,0.5379992687618618,0.6149308215933544,0.6916424485478432,0.7285533820017918,0.6897178266246078,0.6005914021364358,0.5064264544258599,0.41334926729691457,0.3261815731490225,0.2673409411174701,0.24796326168612026,0.24777327383385295,0.24836442028035588,0.2720067716105481,0.34921356458617137,0.4230571548965081,0.4596946397103556,0.526664298654592,0.4745831107655851,0.36331996209497674,0.3263705452088317,0.2982796730391968,0.23086202563781644,0.1359942237224283,0.10388512585239074,0.18699794223138522,0.244377270217095,0.2762933878353264,0.28697954428826833,0.27519139055102215,0.27542764441779166,0.29085521201962106,0.29171711992125626,0.301545517081256,0.32757734594928145,0.3711044361353659,0.4306618739277681,0.5178014811563294,0.6087502071709139,0.6907867324731782,0.7564200058844408,0.7419810156628941,0.6656207855693319,0.5769108655876938,0.47466149730955554,0.39047362888679427,0.3324547676543901,0.32069072506941954,0.3288538112179564,0.3405351278516324,0.37077913795679507,0.41000705959138894,0.5093748526261965,0.6135783356279676,0.6364170285467523,0.6753596553547503,0.7123296536298245,0.6123762309339531,0.5138552451053924,0.5011556762896916,0.48541543018490874,0.41723507613985955,0.33191559051699837,0.29818282452259215,0.367626610773077,0.41975130272516115,0.4602106426014414,0.46423869091689607,0.4459814456456499,0.43801368937402874,0.4376183080622136,0.42825919522650846,0.44891536662376996,0.46883528399361296,0.5035152146681101,0.5721851555272197,0.6527698060854128,0.7487634842404374,0.8319393080712221,0.9034876623774153,0.9101553043580939,0.8399869762036145,0.7448991196385535,0.6426714552055541,0.5479862922131868,0.4487257878314015,0.3761930902637376,0.3430548982119621,0.31930436612977964,0.33369968979428233,0.3627846407758373,0.41685839845040906,0.5125688780578548,0.6275868364738644,0.6608523119961793,0.6187891495365285,0.6884865091811889,0.6523362851542984,0.5205444229256218,0.4558146192823749,0.44055088378177487,0.4183184013979693,0.3358184898625183,0.26402216180907345,0.30661672898219905,0.38206550157399555,0.4153081766690274,0.43610403160168776,0.4395698559943444,0.45963150464391234,0.4661578391369501,0.4823011235331842,0.46960905380765094,0.48291380357703595,0.514922252503343,0.5852088968128912,0.6458073823227819,0.7291657850203466,0.8257575663710197,0.9283318495064146,1.0,0.9925754206961486,0.9063894939598596,0.811237550123538,PM
0.21948492052894952,0.21732183041278041,0.19120995765295312,0.13648205427158455,0.12725167272080196,0.16259688214337586,0.2004681730387361,0.22683266291829796,0.19523544084710842,0.16974803372045333,0.14128475615432912,0.10609560209172741,0.16084192714591694,0.13789044023231423,0.1579330848221323,0.2783460999437226,0.3935179684210013,0.5235492639438046,0.611976370979348,0.5337639781999455,0.42227457022299486,0.32378114414062775,0.25191118791453704,0.1890430413943669,0.15328174293087304,0.1617067340127818,0.16980075452680587,0.1697030711159968,0.1579796768349917,0.13068228763282264,0.09005705691414256,0.05474764477024019,0.06206640137685859,0.08392867843020779,0.09527567690154504,0.09780737997664568,0.11816871933164919,0.13467338289297004,0.13892454509935614,0.14498138608440847,0.1381642961386742,0.12402924387382619,0.12430817813554551,0.07651279123338561,0.01617537551008308,0.0,0.047759046311453,0.0985685774994276,0.1401131227359853,0.16703364581530877,0.16575218438404882,0.1348983873230294,0.15010960357635472,0.23561151126865543,0.23402512577045353,0.14576018382616063,0.1728624193768331,0.2820866119461991,0.4106165254435723,0.5088989232035201,0.5945904202800181,0.5699512365860873,0.46055828636588103,0.38170246596219126,0.3173175052935493,0.27877506952556086,0.2691946021290752,0.26911497925980044,0.2691144124042646,0.2678138100756655,0.24554372232397803,0.21147639108964622,0.17640075696138435,0.17040635824837302,0.18567843853804256,0.19459539606723464,0.19467270956032134,0.19467355099493755,0.19607296885558423,0.21428442943447745,0.22066834587964923,0.23836736956987803,0.23282606432756037,0.19722038701927236,0.14325272050304427,0.12734582835539765,0.16649951241862748,0.20315988983328026,0.24022537808376754,0.2461282675254921,0.24875272342238386,0.20814925572356824,0.21553645572963553,0.2553316454298473,0.208525157686827,0.25497104849864094,0.36925612364582694,0.48424076932467397,0.6152333932267284,0.6849555351966963,0.5937099747996228,0.47531784947620803,0.3741810758808626,0.30383067101680794,0.26051176845552426,0.24468804001957256,0.24430088935997407,0.2442847310262639,0.23926977217055612,0.22035780090204948,0.20092025450620632,0.17356287514116264,0.17098811948731285,0.18856932288524852,0.19463638460737176,0.1891081444982987,0.14382566739096347,0.12114258840590075,0.1351001227529105,0.14494593315729798,0.1450402481699138,0.14191550557925048,0.10930978873656993,0.06256013685064277,0.08282538503231551,0.1489728364297962,0.192277094946264,0.20446118898597643,0.20459911185574153,0.20616105608613644,0.21475963348846872,0.19991217784817295,0.23130015469978815,0.2728018953868592,0.2564749101905024,0.2541829539001812,0.246751123586618,0.2310279774866375,0.2525474868223583,0.28875379470128504,0.3139553239081998,0.3245017384783857,0.31940879096563624,0.3043017351725199,0.30455448877608404,0.3235860976504874,0.37278508568915747,0.45236487943438064,0.5526428589236456,0.6613589547931324,0.7771589126311733,0.8988028642363641,1.0,0.9832734962758236,0.883227574363338,0.768838422081525,0.6413088913374265,0.5357325298737754,0.51416730289609,0.43361652750083657,0.33492469126458335,0.3229551876551824,0.3273131610020048,0.30901564595247955,0.2882173254315976,0.25095750377520964,0.2200112774963605,0.23930978450043838,0.2809656309571009,0.30336466108900595,0.3145199952656128,0.29252038151771664,0.2792600697571279,0.27904023676277134,0.27787421374973587,0.260164288412585,0.2542496134874863,0.25418232071448976,0.24705183845687806,0.24377636771248667,0.2804166040255538,0.31772859754858374,0.3410666733939971,0.3513404344402957,0.3327448516928557,0.3287049088560483,0.3356852018074772,0.370289219777729,0.42686570456111195,0.5243931598034886,0.6390943553557085,0.7276572347174683,0.8253234908665092,0.9134167447555104,0.9161498495286686,0.8211133672411819,0.707046731772305,0.5810405283705204,0.502599157711562,0.4780641993864023,0.38009328046757496,0.2733027131258998,0.2472316823038554,0.24644144769142606,0.22884236867776764,0.20815419197023388,0.1683656382708092,0.11126215815340412,0.07600881637525214,0.12133368455581728,0.17070761995436268,0.2031864018976961,0.20459778837016085,0.20460040465091556,0.20664051024574714,0.21450843843281664,0.19968717968565297,0.1747509896801498,0.1559535579453204,0.15446195068655388,0.13926331829887317,0.13506540509275133,0.1715711022871318,0.20909809551784697,0.23366279731976292,0.2523572809802799,0.24101495907465953,0.2295955338060205,0.23628442464312283,0.2730262158707335,0.34805868496724823,0.4447130567607571,0.5563341619874489,0.6723782116353689,0.7868199178876258,0.892805409415403,0.9320534366654112,0.8452283686480451,0.7249470128932058,0.6029794650294855,0.47972814428429444,0.42594378800299637,0.36331542984789067,0.262047016510806,0.24279876738367356,0.2616087466471706,0.2974890738484648,0.292244530658631,0.2574093062063989,0.21948783473968891,0.19918703228655232,0.25043417873523577,0.27872472611228627,0.2951193650845303,0.31682517708047975,PM
0.2629417981856905,0.28774107135527327,0.3189149871391148,0.37587210662105086,0.41653597987264224,0.44165979905031616,0.46381189520172583,0.43999175581327865,0.4025108323315747,0.3956916175979108,0.401003710074856,0.3788297016288924,0.3297322099180402,0.29471904532518334,0.31316006667509466,0.354050529864959,0.39562107400201896,0.40158403861214786,0.44728249882461313,0.5475330386910242,0.5717330846911199,0.5012113811409531,0.5631220321483354,0.5981932062766449,0.4864125772605563,0.40359606954180904,0.3746042095801698,0.38182999977818,0.36756824139228517,0.3479894766453855,0.3476751942144034,0.3869906112428394,0.43876776930351813,0.48178388197113,0.4839297817800814,0.4569958526783928,0.41022843754776517,0.37655229874398444,0.38877343611018933,0.3868205002837266,0.3664874661368991,0.32325385825538433,0.26867780794687235,0.293399860416085,0.35961510612512715,0.41826096731113616,0.43238058814851676,0.47814035276112143,0.5508378501411526,0.5069905230825844,0.37211303677066354,0.3088362897343888,0.3978588363769999,0.528049967888256,0.5857370530429931,0.5218838578735268,0.47936421480622027,0.4448076124047553,0.45793585803403225,0.4855473630358693,0.4606047308178107,0.48854760908030226,0.526514711298363,0.5684299085768956,0.5827131986472676,0.5486563096566499,0.4966512120407387,0.44056514496263954,0.4114660005250572,0.3957277638412542,0.3718853492292782,0.31072647417082866,0.24184623415694873,0.19036077153145925,0.18090303189875012,0.23092706423947984,0.2930085021026292,0.28740851420856117,0.3158055269859572,0.3178545586198087,0.17898230310475327,0.05097994707678932,0.0,0.09467322702638548,0.22789167053979398,0.3380995390555581,0.3029447486693657,0.2846471608346999,0.2684641190501278,0.2573427639274044,0.2607761358784808,0.2935769025120134,0.34822720147536135,0.386553401010973,0.3846957380453153,0.3785027658956128,0.356406622540983,0.32422381288381086,0.2942297557583222,0.2862690383619011,0.2938238851982957,0.2565965277888145,0.2105738282791867,0.21019640029464703,0.2552994342307455,0.31055664526728055,0.3523013842770588,0.3524744779643614,0.35855394409402397,0.24638367924851412,0.16907398239762372,0.22546461019204678,0.36055954897484366,0.4775998390589651,0.4416880052516188,0.3276452836728634,0.271543127176181,0.2863590503348137,0.2944811719114009,0.29241268935952114,0.2933102631340816,0.31204461501002534,0.34380686107283953,0.4115964639184817,0.40079893513413456,0.37956049743961806,0.37902319164368414,0.37903062221320916,0.3840178391761846,0.4548433162357375,0.5829860084997964,0.7357970784140413,0.8859027170658731,0.9857793329470637,0.9620830168221772,0.8290009467175494,0.6939906305817614,0.5677530201382517,0.6033568812883328,0.591601675422301,0.4872528519276642,0.4352058003914765,0.40635453038446734,0.35422785525836,0.3012376059382511,0.29461345507437375,0.34615560494185704,0.3725483339068667,0.37900256128881793,0.3820104022355224,0.4114925021831368,0.44887820173655246,0.4623761719492192,0.4774230587745265,0.4640254650705362,0.4240233934945268,0.3702932780877157,0.3340233212583561,0.34930173991568036,0.37173971951166784,0.3806576658857663,0.4306447290473585,0.55525404151222,0.6852345709205663,0.7907173208370493,0.7625745308392515,0.6297433155672723,0.5027130440956089,0.5527741360175078,0.5813053247943101,0.4783126388402703,0.39290627637388287,0.3932475910962365,0.3614971810479064,0.2952011029100525,0.26095137839542737,0.30487502249295684,0.37401575633206097,0.4335819718546663,0.4797220427864817,0.4737766052202934,0.49428846298495976,0.5385619574863023,0.5960724353631326,0.6443225405350201,0.6745840701383541,0.6633544274870564,0.6376788195196026,0.5787155500353496,0.5527538715406521,0.5696877678831154,0.5534444617641796,0.5680820896675751,0.6111605227905779,0.7100824042993592,0.8338976117728718,0.9361777139296938,0.8978742948875329,0.7790078638909463,0.8302100305062599,0.8500005434285862,0.7571256085231264,0.6388687668085389,0.5581341908382242,0.5250396919198144,0.46574333783920263,0.40164460054280493,0.3690383646337283,0.4178547269245483,0.4584224572594362,0.48460490875010365,0.47885375562831634,0.47940636296783534,0.49711179083210233,0.5510923083333967,0.5547894540611065,0.5706980894608975,0.5635994876540096,0.5083321291550202,0.4640732104434333,0.44182688853284535,0.4467236355955908,0.45609402354064876,0.4815357444388484,0.4740065900222863,0.5527247396921808,0.6804294333403611,0.8150505117776827,0.9435903688014324,1.0,0.9123553611150417,0.7919016007892505,0.8264546654421991,0.8029646026023665,0.6951953256586618,0.5816546805390912,0.5110647868349698,0.5123811265876732,0.4612763302918754,0.3941971449384951,0.39797796619398706,0.4428502347873433,0.5131020411675351,0.5213410173088278,0.46948754541407656,0.4683121048277048,0.5054945555598849,0.5324679665580181,0.5572470639161606,0.5386066865486816,0.49984839680824233,0.47187213569104003,0.42423689343527116,0.38335347278814513,0.35582913679978834,PM
0.03673448484742181,0.11541775367085805,0.2095195616220742,0.29606193048726404,0.3897486396448211,0.4839144534747981,0.5699778691743169,0.6521399695767103,0.7044682234484811,0.7445403580669625,0.7441642540430389,0.8001826785716826,0.8590249379840109,0.8723597914141374,0.8719792305765932,0.8632979189824324,0.8688667352057922,0.8657418922206979,0.86369973680492,0.8858890179065229,0.8970363150698673,0.8863614940399482,0.8930532184358719,0.8922513377350898,0.8961682640594939,0.8918252932823163,0.8308331774663633,0.7430837790893723,0.6526081695996582,0.5607014200873963,0.4731688485843011,0.37812540017677554,0.2878661688203725,0.1989045999373773,0.10826084327731245,0.02410564703486151,0.0,0.07332998412305614,0.16130697763811352,0.2565932259219246,0.3486440409304097,0.43612755396335556,0.5312212990050682,0.6228676981075563,0.7105220771645226,0.7979414534431091,0.8508443710713796,0.8557231579416029,0.8490041916515032,0.8549019607820478,0.8563539113306675,0.831215797127183,0.8344867773862068,0.8687852338779509,0.8749330901650827,0.8822558785060857,0.8868882256418613,0.8780319494909448,0.8742315225290123,0.8859995020012514,0.8896213510147917,0.893846646509153,0.9010914049239334,0.9014798851580312,0.9019065115763969,0.9139519386327526,0.8956161561602938,0.8230328620512644,0.7368788644285986,0.6449792670268242,0.5581706881435486,0.46339540186166217,0.3677515229565147,0.2721104092628144,0.1780580066261308,0.09182245170280612,0.011266473561937884,0.0016576969610555548,0.07628886901234821,0.1711766112041644,0.26187344329911033,0.3504981938308904,0.4458880256940698,0.5411721373504768,0.6291995697067636,0.7203001994323253,0.8079787948206505,0.8697863259999352,0.8729127482772119,0.8693120964449446,0.8817380474877299,0.8712845157560134,0.8566759471700294,0.8335782049092983,0.8354984059627018,0.8692647274849488,0.883463444374055,0.8786984677472935,0.8910256308926237,0.9087580307406282,0.9060901366738003,0.8386876360713351,0.7499937382017439,0.6621439443973025,0.5745804314044711,0.48303278276568307,0.3879206136440143,0.30035682302626365,0.2084425868747093,0.11663393544552991,0.03367952536423813,0.01196643720381707,0.08528484200273034,0.1761273003935817,0.2662336309025042,0.35535592538534555,0.45079794682365737,0.5441717413415503,0.6308027628592658,0.7225567909329702,0.8026698103932013,0.8557429023535879,0.8742919422555409,0.8617691907838123,0.860624645858086,0.8503686071659755,0.8225289490445544,0.8345282190585992,0.869513684806291,0.8954698142516782,0.8917580279607435,0.8970536228536787,0.9047588171423218,0.9099858945762243,0.9092796981066014,0.8781391086777643,0.7906854795175,0.7040890141591107,0.6181522494701772,0.6163141964586811,0.7045507882726367,0.7952787594173609,0.8838394149554893,0.9731577131561877,0.9999999999999998,0.954649693211947,0.9433317252343472,0.9496553772951442,0.9387403595104471,0.9300205495031986,0.934062539035758,0.9228501479583036,0.8917147160367052,0.8686144084137737,0.8827651406988235,0.8911533994360974,0.8969373929798776,0.9033989597471586,0.9096433896110094,0.8782785165115212,0.8250350296120132,0.7444792330807617,0.6580270608794871,0.5685850329751145,0.4735955478481153,0.4176892176508,0.4857428371904926,0.5794260231816206,0.665896314725674,0.7568319554500145,0.8437109496892947,0.9300231501799978,0.9894077480133807,0.9691844234953824,0.9461058033501215,0.9224121845701079,0.9150682964392567,0.9141111252723302,0.8942146420216168,0.866974491140794,0.8826048863055951,0.8980577610015976,0.9200697125608219,0.921914251458398,0.9062949664131084,0.920554566104314,0.9208024617392951,0.8760584897623886,0.7939666024651058,0.7024970306199545,0.6156443815578576,0.5227372164829807,0.4381660533660938,0.4558455855681358,0.5439278102335945,0.637051897893419,0.723564471560548,0.8114072814683433,0.901452917595259,0.9730136126538296,0.9649099081802615,0.9472179669493996,0.9398501959101069,0.9376840307060148,0.9328682186320776,0.9284128350862113,0.9222419769013996,0.9082990098749677,0.9112088074166296,0.9273016810755095,0.9241782216931582,0.9125446358046163,0.9122616404840993,0.8870732284664238,0.8632718705554516,0.8899124973563743,0.8914829237588096,0.8845758548328717,0.8895726397459025,0.893914409477025,0.8966604254351724,0.8699370339781092,0.7912454780692171,0.7005338165437844,0.6129606671118752,0.517802619646567,0.4233567039695625,0.3842101913146232,0.4627471229648603,0.5576532847797737,0.6447578495087096,0.7364158029219146,0.823070410726306,0.9102795465430324,0.9799422194256515,0.9739081115464392,0.940842869427043,0.9295433606098038,0.9265639068957092,0.9251929562937773,0.9351915625196707,0.9352514956535882,0.9083903501188735,0.8953650985217967,0.9040446511995508,0.9026718231155659,0.9038480484001472,0.911249511681637,0.9143998296867395,0.9116690941666687,0.9015569638249887,0.835644256405663,0.7502693385840331,0.65932618843793,0.594999832313275,PM
0.0,0.06272940466390198,0.1937819435652819,0.3162801817511114,0.38225096564493866,0.4636824851466339,0.5268026255482741,0.6449730341337223,0.769555022146355,0.8018795283028619,0.7516878214136464,0.7335645255266168,0.7012008383920203,0.6565307334339496,0.6260118415643636,0.5969315921420804,0.558271554723635,0.5591476041499024,0.6081118852506173,0.6478611752747399,0.6979662550813974,0.7211806309247657,0.7244930064885895,0.6977693265878444,0.6846608293134797,0.67609473700649,0.6357628818557415,0.5813404493712473,0.5145528393304555,0.5098335825921301,0.5900650262218172,0.6880387799849488,0.7045961532739384,0.6316874773877976,0.5046348405516299,0.35085771192286197,0.20765358853163862,0.08667313654881648,0.11371077295191556,0.2610503975422396,0.4043852940145958,0.5613152772381045,0.6996163173604697,0.7813186162658456,0.7566400408900065,0.6963208841398685,0.6519515661713933,0.6291487211799685,0.598731210223336,0.5754904697752656,0.5568940577806267,0.5456643903249803,0.5843126521610551,0.6516918343962286,0.6966549915886309,0.706277615618045,0.7090089958159109,0.7306634704723733,0.7367336305557086,0.7486637340900386,0.716863644090346,0.6440045959104972,0.6051803364065091,0.6518488626557191,0.7368305840126008,0.7713345766615336,0.7622308893767724,0.6486824087023328,0.49489989121309064,0.350277374891824,0.20672776588860797,0.2120429528775536,0.3421598595432065,0.4850284052103411,0.6322907396821686,0.7776737421781132,0.8771612147053545,0.8920332296404294,0.8872275456085705,0.8536280252700243,0.8282534929441367,0.7799140595204519,0.7455028046077259,0.7124662655182141,0.687836026918426,0.7125480047342356,0.7643526322193828,0.8053597071702092,0.8098766957241694,0.7700691598711633,0.7746490863758431,0.782355983587117,0.7692314324520431,0.733733184074032,0.6825307286094682,0.6097429068463946,0.5757322114722219,0.6380076431815076,0.7438247021112194,0.7635449482676058,0.6920097986652203,0.5727371758955697,0.41082854794574386,0.24623443193292305,0.11419699737267974,0.12229418638648726,0.253975884696207,0.39891721797091106,0.549327148664672,0.6924868689978099,0.8163828827367943,0.8281703479431308,0.777852042717758,0.7770825077213535,0.7461201672418531,0.7065325448083892,0.6695116143927335,0.6122263135767168,0.5930450986598523,0.6011286412266243,0.6518366199210752,0.6889502344637495,0.7357570368774353,0.7425697589284632,0.736674701476542,0.7406171425664545,0.7805099161438984,0.7785792809811416,0.7287112647567766,0.6637605143106451,0.6018302969658849,0.6071157882415528,0.6878614643980927,0.7465216160371182,0.7545986340283881,0.8213436226633006,0.8584130292607184,0.8363939455913143,0.7415971089200588,0.7016979833795216,0.7583654056380076,0.8212262251715665,0.8577699648747932,0.8743209739237101,0.8640067389069528,0.8558677438124698,0.8533733931433019,0.8485244075282448,0.8045365096867694,0.7567623867761974,0.709360207746919,0.6913911261857968,0.7310760023363687,0.7936866781336112,0.8202680626811891,0.8500139827488264,0.8742466166033425,0.8807963535905894,0.9190903428512658,0.9579038406458262,0.9353928772472249,0.8202131083849484,0.6833899151780138,0.5706649855525074,0.6532090822492642,0.7746511182360583,0.858467423222145,0.9037294607639912,0.8557708362357279,0.7580414781130389,0.7127103807622119,0.7662330576136269,0.8168978306424433,0.8556581331603277,0.8833668439170617,0.8774916514630955,0.88772947261424,0.90709996214223,0.9144249700644331,0.8865790329499279,0.8358095084656072,0.7908207108728802,0.8134242362335837,0.8277170581668396,0.8680257846182076,0.9065549374834965,0.9451729862653209,0.9899745498899484,0.9913757739720812,0.9999999999999996,0.9855609929056102,0.8839901600268054,0.7441309947953569,0.629400535688958,0.6979040988054881,0.8307842593692336,0.8839286204874655,0.877983131988358,0.8511141753574889,0.7528391240900683,0.7133385166520498,0.7806911278568012,0.8199667385009124,0.8427491023875286,0.8380571977961062,0.8423556202946059,0.8262128046805475,0.8195351260252335,0.8040519420315211,0.7769798128847634,0.7219382953467339,0.6725519145558381,0.6613945134214094,0.6792600497291938,0.7128166925716006,0.7329052745039957,0.7654925854747776,0.8070461937257103,0.8623026350355345,0.9020093149762132,0.9276093155469725,0.8366869983847445,0.6986150152526647,0.6251241041188549,0.7259162531812424,0.7814588200453181,0.8164392566263561,0.7835013395250399,0.6893917740324809,0.6274215945644968,0.6772399731211771,0.7286157875316728,0.7711597337416296,0.7930825907354184,0.7951468702205884,0.8253119187670541,0.816550008241768,0.8178908724420269,0.7805123098512126,0.7270085162133779,0.6821458598348529,0.6682824859260923,0.7032844683642705,0.7324461577769221,0.7478826654637278,0.7953462062347332,0.823167925590091,0.8454833106124835,0.8990481404441186,0.931840511827057,0.8862763904374504,0.7415930377526947,0.604490078823837,0.590926236871558,0.7082562495786298,PM
0.5614902339655559,0.4974493853292996,0.42308875622808473,0.34890703031630155,0.2805502321588995,0.20919634717318492,0.13472088068364063,0.06118272639992006,0.0,0.0038996409832235956,0.06806127775708715,0.1422232536342385,0.21659592324479726,0.28608927403952444,0.35617319100209,0.4305926517231031,0.5050459045741846,0.5757637822255646,0.6441808213005726,0.6887549992200415,0.6910229033662987,0.7395314111118814,0.8017491399439667,0.8691818663490782,0.8871282162110201,0.8599813150684841,0.8448625731140511,0.8306804208346659,0.8250410751950941,0.8309959760564078,0.8622741410841019,0.8957271876687292,0.935592609732093,0.9514506980000157,0.916355431062702,0.8691579022039373,0.83381918919717,0.803998390637791,0.8061228875380664,0.8241673040081761,0.8382466145725513,0.8481264234139116,0.8594805636947158,0.8672630163950856,0.8797411069756305,0.862105535281499,0.8453265601624333,0.8415048379232888,0.8369479821994654,0.8468654673330243,0.848603638630214,0.8443016464010353,0.8453315108897923,0.8517464039537863,0.8291315045170029,0.7648304991876369,0.6946562636029094,0.6254821081003532,0.5511606844014529,0.47889669823910497,0.41121333778123126,0.3372862037613522,0.26284652589761515,0.19248282344282253,0.13026827437868937,0.0706865023096358,0.015245773766926152,0.0003096858834443772,0.05581166551922745,0.1247097401234396,0.19903304831622093,0.2735413300435454,0.34763275379693503,0.41570215734673055,0.4874244670611254,0.5619108228859258,0.6364191993667649,0.7109275758476048,0.7854273321412897,0.8574430602089884,0.8946961959981679,0.8750342778216165,0.8578597201557283,0.8465129085004697,0.8484538465128293,0.8491941794454696,0.8572702350900958,0.8857099429292536,0.9202820671110299,0.9254730188778297,0.8947097201627667,0.863060757478264,0.8403274103765974,0.8255003823716192,0.8156958316872982,0.8090282897259926,0.8143276737595015,0.8255050045494712,0.8301164686839497,0.8264240902428432,0.833479851968201,0.8369791209672879,0.8329840141537941,0.8175055142517516,0.8087686529264548,0.8216447108585603,0.836814831610357,0.8108496754454491,0.7484208724956756,0.6785877285055706,0.6097727138042552,0.5354963368877497,0.4617210086721155,0.39420973212088395,0.3216258984076692,0.24717226177195672,0.1763254128901477,0.10762564243059769,0.0436348679507943,0.04922265164570061,0.11605209964597174,0.1835036131894885,0.25615341627107724,0.33065440717581196,0.4051627836566518,0.4796711601374919,0.5541795366183304,0.628668785296131,0.7006002813836898,0.7685010084923556,0.8400729378299874,0.8696787142994742,0.8475011049479346,0.8327360185775519,0.820161685755763,0.8245346037029149,0.8280195540386379,0.8384164987646572,0.8619063738521349,0.8926102995223131,0.8790896325757522,0.8451734353463249,0.8157248308159697,0.8014414863708901,0.8061978275806221,0.8228526181178899,0.8335402551861928,0.8349923831816595,0.8469472572288732,0.8730353126698494,0.9088999276444003,0.9290020478408643,0.9129357179860655,0.8798650676715962,0.8615848438455862,0.8539994086048359,0.8513412008376438,0.8597611752078937,0.880604972173882,0.9197659590828451,0.9745607202140989,0.9828511448337371,0.9212003218568878,0.8540096951792162,0.7833206750261905,0.7260190478430621,0.6606816008212548,0.5944141814136725,0.5701658482863956,0.6268594294879701,0.6961741444332563,0.7651326389027373,0.8301281091923576,0.8697279268917573,0.8652146247909591,0.8504049472482933,0.8440903855925048,0.8495861425547169,0.8610078922600541,0.8633234366940701,0.8573515111945893,0.853070697923092,0.8570953120312779,0.8514721593265133,0.8418768684314981,0.8442321260256276,0.8458505439794599,0.8525940225852766,0.8687247921335499,0.8938868634116888,0.9282802873180012,0.9589699516952186,0.9632978248095405,0.9337164135349887,0.8989411245943986,0.8788737130084865,0.875257599415638,0.8737614783110523,0.8845303011368957,0.9045127565424156,0.9475720289460257,1.0,0.9948928682748042,0.9306591195396801,0.8632307784469679,0.789975121469003,0.7221739862179684,0.6500857937417022,0.5774310337295518,0.5564197150032619,0.618320349484005,0.6922193813574007,0.7600540924753378,0.8280813738261148,0.8794284916982102,0.8860456534035674,0.8738929317138013,0.867941331832295,0.8770896748339894,0.8847578001897185,0.8765148183529314,0.8645122603451589,0.8694786341714027,0.8723638159339981,0.8876060438317821,0.9090751793610967,0.906887403976743,0.891656422373259,0.8820965258911264,0.8743309038253393,0.8592431359065429,0.8437192919126364,0.8369670095592996,0.8639747502339334,0.9010788832987298,0.9465611167816077,0.9849712255946828,0.98402794671348,0.9494216576086836,0.9126753195075901,0.8770076156399791,0.8539832310697204,0.8595011626696316,0.8717992734173239,0.8816913123324917,0.9134039141509844,0.9680146586109741,0.992614327275261,0.9457889759362605,0.8766600722130902,0.8089062959752986,0.7416445471353654,0.7366152109098043,0.7977290665540095,0.8556371001490626,PM
0.9227353069269312,0.9160325185193327,0.9060942419891224,0.8885973173398453,0.8857658376284993,0.9157303078352564,0.9492416177397868,0.9572002861263956,0.9398165061985709,0.8738720101947307,0.7986194599705413,0.7245332954008584,0.6457911976273255,0.5643899948612382,0.48644820437528546,0.42200421879279804,0.424817668802144,0.49137683303358737,0.5654869821036485,0.6422925842360384,0.7162644801669152,0.7938497466415849,0.863843607436566,0.903172649364785,0.9004036036430066,0.8757888100811672,0.8440030514304054,0.8205800141342053,0.8306872156080388,0.8674261668181334,0.8955261499447033,0.897221412655543,0.890961063336322,0.8732399072860287,0.8463760449422909,0.8352162856928887,0.8605186444130438,0.8995798480171183,0.921484166712005,0.9082249866826585,0.8472159694339246,0.7717947703974436,0.6962572939868371,0.6228659835687557,0.5618952593384373,0.4849858421034242,0.4118316007378221,0.34801989281940415,0.3605049030838584,0.4280161730594446,0.48825429401760057,0.5660650344303327,0.6402665613023218,0.7182918388412914,0.792091115518729,0.8648848307212397,0.9058516147546744,0.8973369507048997,0.872413463431322,0.8392872142892035,0.8211263416798603,0.8338808937610535,0.8692409293691087,0.89139609402554,0.8763756209009214,0.8629729634764524,0.8416235874290766,0.8123495466386018,0.7911171733268924,0.8004887003554745,0.833375743589326,0.8575847089512648,0.8754217528137714,0.8514528244055494,0.7810061392039774,0.7042163807728433,0.6300958728253051,0.5506027762540401,0.47698654860645406,0.4023517574634693,0.3698901648146048,0.42142078957630835,0.49436525982098833,0.5720014582773864,0.6459178017747119,0.7266092477953031,0.8070641908840955,0.8789994524519383,0.9368267259330093,0.957520183341323,0.9440355640899706,0.9192414971712136,0.8899264960763132,0.8835814567513681,0.9057831944023801,0.9379097631490821,0.9377241589275981,0.9311104670995817,0.9067908403000736,0.8823743191894394,0.8731794511311631,0.8851754447902785,0.8712270960320253,0.8454496687371794,0.7957401638744529,0.7256605148174026,0.6513208752441572,0.5777739239856102,0.4994575410924541,0.4256205688143978,0.3488136579362259,0.2913055121232583,0.31501782535462863,0.38718274111050544,0.4611386806240386,0.5391099499240019,0.6130257000810576,0.6906416175461857,0.7573944434492889,0.7697580681370751,0.7329784312430069,0.6966119453707184,0.6509603475430258,0.6023899384968988,0.557533677461513,0.5106601681461201,0.47731375903867324,0.45257186131165617,0.4152695229915483,0.37029577111270584,0.3156411720296787,0.2646493521495089,0.2123025884434061,0.15705948978966655,0.10272953639090998,0.04717859932111912,0.0,0.005581629083242778,0.05686912881146311,0.11347752789271925,0.16273402865657627,0.21789783289447306,0.27417917958127125,0.32540136335868197,0.3749918830885314,0.42620260003456323,0.46760599759598886,0.4958125322083414,0.5249207052487496,0.5660085390719548,0.6151009218568614,0.662780937772295,0.7073776119316416,0.7450641687902498,0.7839276764923252,0.8156925863350851,0.80212407446765,0.7436916442647706,0.670882972995089,0.597300814587545,0.5355717134015473,0.5773092226621269,0.6520864830995653,0.7276796730527954,0.7987055351585733,0.8576218247779909,0.8876323201746515,0.9077783790879145,0.9140526589240839,0.9036457049343086,0.9198357708631525,0.9469898633314394,0.9600471521168011,0.9680957417156281,0.9643425291119782,0.936482440039284,0.9123323109966409,0.9292451364634878,0.9593000807956021,0.9783554590128684,0.9886898102319818,0.9707260134606795,0.9130841849504417,0.8443643647215872,0.7717078706174217,0.6926725598045015,0.623423730888479,0.6242845540976457,0.6972215300960359,0.7723331920908881,0.8487024873983148,0.9139429583287674,0.9360701238981487,0.905066624415448,0.887785104974662,0.860454995210625,0.8254934871582843,0.828909811433893,0.8569125933568947,0.8821618591360242,0.8965189520522591,0.915405308020172,0.922573341896947,0.8967766977818042,0.8599150213237255,0.8564960553777182,0.8864726347586181,0.9157766235297541,0.9368988201385074,0.9414810608076513,0.910790838384622,0.847648035566208,0.7746037349621783,0.6969071222968563,0.6718092506334518,0.7414693715060751,0.8170789172094274,0.8891284175563935,0.9479697439688498,0.9574376412051676,0.9471521278493925,0.9247680279728113,0.8888524320646359,0.8739294859697401,0.8942798164187392,0.9146355142438888,0.9224249679179332,0.9303670281797437,0.9211967129406634,0.8981597988036142,0.8584186501083796,0.8565543922001057,0.8882424143033959,0.9167925445500259,0.9349041676034254,0.9326358926212938,0.8990255672097437,0.8343623774410763,0.7595705423900466,0.7044538636687226,0.6516641163449272,0.6715396637546965,0.7495437406855016,0.8231863669513707,0.898769645518131,0.9691643563345768,1.0,0.9908338785223852,0.9815021528026645,0.9495131738896653,0.9161968752627735,0.9223755564480666,0.9398809328817183,0.9509253732028563,0.9582655472171729,PM
0.0,0.04252298722831682,0.10004572634793485,0.10788947356736833,0.15615500089988177,0.22976324164799888,0.2950939280305065,0.3639685112125932,0.44058952092790027,0.5191768081316657,0.6034445786865146,0.6684871072643743,0.6299583411464582,0.5536089151193482,0.47809080493000367,0.4094863194020604,0.3728298525574403,0.38013767110803776,0.3826663233003911,0.34205610627903416,0.28856417307617965,0.22775053173698034,0.16779708273613725,0.1273578403015032,0.13717305644923838,0.18832063217097472,0.2345847835615733,0.25134531292289486,0.2691095569806876,0.28083673929221087,0.2656944052828154,0.2496244039448734,0.24881098096145404,0.2567725149382758,0.2745456796832726,0.28713974321427305,0.29599539103060013,0.29772821576603103,0.3066352732595785,0.3086765605594204,0.30707353658518377,0.29420931128763206,0.2853505598129591,0.2897754574595164,0.25876358978140357,0.19490378751559612,0.15266418695456996,0.1838417083737227,0.2510363658389201,0.3095567033370341,0.37578519865792637,0.45122941258162963,0.5338577226622283,0.6068409332659461,0.6240810204517568,0.5543344545399862,0.47130950278377326,0.39900400913049894,0.3607225736517703,0.3807680378081655,0.4196857554086264,0.4086572203178169,0.35273253129381454,0.2932331983597507,0.23536602456318523,0.18111252150444068,0.14814064108386327,0.17107225815118743,0.22134796050313388,0.26422203721988513,0.2868388142691949,0.2937778456999087,0.28070814763777663,0.2635142492072895,0.26667377997260955,0.2725028329472152,0.27475264277183165,0.2882412934897167,0.29639660050105343,0.29682535679259203,0.30319000938537943,0.3149874525453513,0.3195046186286581,0.3076196428625193,0.29137394449924714,0.2847810206043033,0.28462369610228966,0.28149767795345815,0.2732085109689282,0.2741410465164231,0.2831647798127366,0.28464008968024235,0.2846786532130252,0.2897234306137624,0.31573825097949615,0.3215723006340865,0.31039173163863687,0.2962154608293879,0.2623812394956613,0.19662487190916966,0.13878952243646414,0.13258305818073413,0.1897981637670032,0.25675057836137793,0.31817883658499624,0.392966003109114,0.4716041045359367,0.5560050731758575,0.6389003278025716,0.6693221094373583,0.6188828286184977,0.5457165134884698,0.47088887408395563,0.4081443715555755,0.38620796252035716,0.40967569635730094,0.4321823491740371,0.3985801902617372,0.3525965192790175,0.3773311461328481,0.4383432567962402,0.46747252759746627,0.45507547301020135,0.4315852758872787,0.46041201395716613,0.5387301331609378,0.6184094476807942,0.6946823298729947,0.7699066074581962,0.8492805021836911,0.9240741511142161,0.9753788647400292,0.9418209097491086,0.8618574842032147,0.781646598802735,0.7044843232855589,0.6202632546494053,0.5360401873060148,0.4588146549394254,0.3787295658016927,0.30326532951865803,0.24555330133754127,0.20571100331517655,0.253615707719945,0.30866198676092527,0.32815156692441705,0.343301696796136,0.3582245693511983,0.3561933188164541,0.33071359524017185,0.31611307146419265,0.3135071670357825,0.3132974646616249,0.30725611080929993,0.30748410194477827,0.3126402196614948,0.31355572041677404,0.3183241189309103,0.3256600492121968,0.33715508029516505,0.35535742209034704,0.354180622122666,0.34382495722291373,0.33195000608205816,0.32566260907123135,0.3254980745787759,0.32143462278603274,0.30411287884225313,0.301480247563086,0.3019849852117982,0.31400856220427165,0.33059527731604166,0.33398041463468275,0.3184118770931901,0.29209905900660305,0.2511954947249473,0.2044955638371846,0.2154116095422054,0.27116726809137504,0.3286453113245902,0.3853198745176891,0.4387261944598799,0.46470029423855785,0.4493752730510929,0.413041682241144,0.42118657300481366,0.4907765910596267,0.5649768979221912,0.6445172626046445,0.7199923696692527,0.7972517079311723,0.8763031265486878,0.9587048212200397,0.9999999999999998,0.9492490896186234,0.8738372017188392,0.7899822695570535,0.7055016461702779,0.6252809370589179,0.5481100216493993,0.4650379991431486,0.3914961133463415,0.3254536198117999,0.2608332118233372,0.2480972963652026,0.3045724762024873,0.33247230555726426,0.3203104332697235,0.32054209036276915,0.34109457703441604,0.347124607390642,0.3384818854200897,0.3361223700567464,0.327411931303337,0.33062878036092713,0.3211343716632784,0.30953209714163865,0.2935012387756559,0.2842286564805687,0.2831941655231289,0.3047855814404403,0.3124641351655675,0.3028060254100686,0.29000435247271317,0.27473354774248726,0.2391175216165362,0.18742331666548706,0.1970860453310621,0.2516771319747171,0.3127951666746962,0.36975798188017506,0.4127501497054269,0.42698664065075076,0.41178440068507594,0.42431932317685184,0.4903215764859945,0.5549587622410674,0.6206442768425939,0.6974520984545423,0.7734094460971475,0.8486822758326771,0.9252655400382157,0.9621591444366973,0.9144441703335284,0.8319841433821298,0.7474585096016615,0.6629288021054645,0.5784304773882314,0.4976112897013423,0.42138207261150806,0.3472830744816624,0.28917277838584887,0.2379826364776767,0.2631881856080298,0.3068150337955087,PM
0.7865503537157814,0.7865640253124717,0.7888234948974147,0.7897293828071155,0.7822871591903977,0.7710855533599152,0.7558045274207623,0.7496623615205793,0.7417931255788914,0.7155184643553978,0.6921598251890637,0.702521141832013,0.7375591014274983,0.7494918605149861,0.7451218031519458,0.6964216617198815,0.6132090311280685,0.5254703202970439,0.4447285377097434,0.36132001734719243,0.2783507835752961,0.19645230469307373,0.12047223068876889,0.09131554464715896,0.14737919088153917,0.22727952860137401,0.314063207576331,0.3950272324352546,0.4839963810071577,0.57391415741964,0.6637157335943762,0.7478576238332704,0.822698496862478,0.8172591957232174,0.7696893812364183,0.751593842403514,0.7406240891512941,0.7325049239501478,0.7004784880314014,0.6624513054670924,0.6348162449125336,0.6383517151071945,0.6763834206339088,0.7060646436141835,0.7174235558755402,0.7227799393166687,0.7166988109772487,0.7163632561883106,0.7118064970942786,0.7245646417269846,0.7251703768986106,0.7275426507059237,0.7265686775176652,0.719516501442431,0.6985759790972639,0.6753699020957737,0.6839347656245265,0.7154292723849245,0.7410707717523126,0.7425442265880491,0.7283821947299105,0.6667789192242239,0.5857647722629471,0.5018959852170453,0.42056019110443654,0.3375327723513304,0.25573985632520024,0.1695496130219427,0.0881158967398381,0.010973904603052587,0.021067488177532345,0.09942762736402533,0.18008278191159866,0.2678153004141246,0.34882463529313745,0.4362738533263262,0.5246553011880302,0.6053908622934183,0.6937444217828794,0.7827637490876429,0.8528173713263867,0.8329535975490814,0.781514404239614,0.7651752758144827,0.7647471062110001,0.7587037622815667,0.7430133638362808,0.7118146145784594,0.6944593360807605,0.7170324558469867,0.7481781417140783,0.7620748225789635,0.7715347000705577,0.7740285658008139,0.7670622551126793,0.7583730521482834,0.7387609080574788,0.7333832565224345,0.7373690027320225,0.7363518404256679,0.7176683926787637,0.6954285939453289,0.6934850794054532,0.7234243624920522,0.7568334289424279,0.7611967302743989,0.7316898053842531,0.6572518479833056,0.5772147878072904,0.4925915426543013,0.41170566432919053,0.32637731584633234,0.2454865540624369,0.1595676146237599,0.0782805606624637,0.0,0.007117827028431112,0.08477807345962907,0.16538405968008774,0.253791295133698,0.3384932935721079,0.4216362200513173,0.5109463667540661,0.5930366337729431,0.6789433757337631,0.7680388830972495,0.8389131844929933,0.8237680614959098,0.7831640555988761,0.7717613821599378,0.7978767120463683,0.8254277350519172,0.8820561904081796,0.9584222893546654,0.9999999999999998,0.9516080993944203,0.8724817204610782,0.7863266783027052,0.6972876720735726,0.6162054891733841,0.5288708398803592,0.4394009005344086,0.3574358092350256,0.2718137096193165,0.2189565602640664,0.28266525776288387,0.3645495639772949,0.4504665199537856,0.5401624071479005,0.6235060530723828,0.7036238468513785,0.7717335201426774,0.7977372790871822,0.8002042047418636,0.7846411878151127,0.7532871061337099,0.7381078882687861,0.7520946533462005,0.7722203268614318,0.7769675469261965,0.7789682819385779,0.7758339617202805,0.7857563886761245,0.7945017686577371,0.8044884495357361,0.8103683011092777,0.8104260680664634,0.8005998168283399,0.7866499899981136,0.7621437655910486,0.738223186556479,0.7595250900561543,0.7865661282823548,0.8015189110828393,0.8005564096897742,0.8092733800043537,0.8373648003751823,0.8998050550128418,0.9699697736465824,0.9798708816005768,0.9110078732767624,0.8304570315702866,0.7438212225035656,0.659502959988935,0.5760049280529649,0.4863020208634432,0.40049013848282655,0.3183531051989055,0.23919734317332897,0.2619498042539996,0.34306557230878365,0.42778101896334153,0.5175999812011947,0.6048337090534628,0.6846779800967593,0.7534850145952137,0.7803178528327293,0.7826548998183338,0.7741238193176236,0.7462830282465325,0.7190510764723699,0.7294300390302386,0.7540795570474879,0.7649655704481535,0.7642328857630434,0.7618317582675667,0.7616750510334074,0.75489427818704,0.7546112758934054,0.752995219311998,0.7523808064699253,0.75275510116167,0.7431476743252359,0.7278376458616729,0.6950963346505978,0.6756692903368837,0.7007183714495173,0.7392999773897777,0.7651613867231866,0.7744417563181065,0.7846044343535186,0.8121316076247622,0.870557638591843,0.9356611180714502,0.9414027755760486,0.86874533280484,0.7871559455929591,0.7010865888448914,0.6135231344414951,0.5325760322278783,0.4442789833909233,0.36564739551399983,0.35161214912158334,0.42432297623767745,0.5058545506189582,0.5871831089962998,0.6674019716724615,0.7451811517205817,0.7853759993952198,0.782453242840788,0.7880984882457531,0.7662955997431997,0.7323255219686524,0.7357990764061715,0.7654880643268192,0.7845678700354226,0.7895799688097338,0.7945984563639905,0.8054573597418428,0.8157095585967669,0.8283153396052476,0.8258184581674504,0.8234224125410721,0.8245990767873426,0.8254844867525957,PM
0.008442477774947221,0.07066129401290633,0.16849131546863205,0.21542209883871477,0.1338586599193281,0.04214925860815244,0.0,0.04583592956767424,0.1358200295712404,0.18863395033053498,0.1181821954594855,0.04877054421418947,0.01127031735138262,0.034706261154274554,0.10098740338397283,0.1645657034948238,0.24721500201325997,0.32525970457684306,0.3141367409797282,0.32506052767218874,0.43282487787913615,0.549379321898086,0.6541856514347462,0.6536051332149349,0.566240859785827,0.48161868891022763,0.4342275612561295,0.41284648010166825,0.3844021924042833,0.3561848747860874,0.3178448765195343,0.28549293507113127,0.3004324967178955,0.3411870236152521,0.37195378372011545,0.388995752315767,0.38362186222668493,0.40899502519123443,0.4206474609737856,0.4348857410681082,0.4383297400118784,0.4169966527034936,0.3980377515045799,0.41786894202945213,0.4657777041777824,0.5185128908010754,0.5430010885518417,0.4772519529366659,0.3694379423761105,0.28820889406570815,0.3240120513650093,0.4254845799627156,0.542235977704272,0.6638711804380755,0.7762188420852669,0.8269604023409527,0.7475683183788968,0.6611000384892289,0.6124073251483746,0.613405063300108,0.6379606078961797,0.6454796496166058,0.6169137276946595,0.5759220944161139,0.5892399629477043,0.6346185025339519,0.6885338591455787,0.7226435960818871,0.7275520485989988,0.723831030018574,0.6802399742347256,0.6299925148121073,0.5945823172890838,0.5623564895638653,0.5316026168722332,0.47212259330412953,0.42438888987820533,0.4165250968475176,0.43451510182696307,0.4719884970815449,0.45938484468651364,0.3786928347263596,0.2612396615253205,0.18202542891540174,0.21945190617857246,0.32727090863860697,0.44837072113565846,0.5624903789552311,0.6502294333107641,0.610380297469717,0.5348312487698172,0.47723765567756926,0.4414483675267853,0.42189389871905103,0.3936686093133175,0.3669073517211152,0.32761795384066117,0.3080359703203075,0.3326647151053379,0.3635341082529564,0.395859514914211,0.41237887212359503,0.4142976091580999,0.4183177152525288,0.41314036354830685,0.4004417072653723,0.37090496873792933,0.32915010394754196,0.334600941791261,0.3760939250286195,0.4345907653019716,0.43532912969559945,0.3478453035375919,0.2558516778362607,0.1640474128883409,0.10983440640233155,0.1692759250686824,0.2696633699471165,0.3658961184890632,0.4894277519556902,0.6159934661044124,0.6989210519286213,0.6365813970712635,0.5474601967146628,0.4809527017892292,0.45283477379978665,0.44161837266540394,0.4098053487737312,0.38124040930958936,0.345467001951111,0.3327641507302923,0.3737377310128278,0.41094597283702416,0.4205303061946708,0.43846143078049327,0.48546247903284634,0.4898408094195439,0.4771756108166634,0.4381670187966171,0.4060590103299231,0.4205237583598067,0.4510922586184303,0.47842433872002044,0.49852361028584946,0.5159860528094549,0.5637362524116702,0.6546675716432144,0.7499520677829392,0.8436938785060675,0.8830400609614077,0.8025977627579737,0.6909305464770186,0.5774664769549673,0.45607946500927943,0.3547369903182531,0.3808224742249009,0.48049580676635006,0.517724841002265,0.5077258257187993,0.4765604161945918,0.41543702468604815,0.38669801220989664,0.4100926442633912,0.44811747207077435,0.4719653245636106,0.47859122496034123,0.48054186732426984,0.475268826524462,0.4614266705024308,0.44143101654117034,0.4166118097941691,0.37638400462691823,0.3886612993518006,0.4187938918439107,0.45627399840698635,0.481146797259258,0.5009768448461953,0.5459798184301388,0.6160788424826973,0.7025744585780691,0.771868742921392,0.739925576192336,0.6392255406787881,0.5313686630049883,0.4193866575228369,0.4215908869780467,0.509688259740328,0.5393433825979916,0.5390166286306455,0.509160356642115,0.48424625562137535,0.5172674620662252,0.5731832096359604,0.605471953048097,0.6351719009888579,0.6796376308102783,0.721649772520105,0.7739871327104515,0.8132992128544201,0.8135574880205145,0.8002184243393242,0.7520617272950991,0.6905156241569932,0.6525350505179461,0.6732988378992055,0.7043756211506218,0.7136833942704066,0.6862038115342886,0.6758731273914349,0.7248969470259787,0.8107835878449792,0.9240838379365122,1.0,0.9716117873385963,0.8743579541222699,0.7607528627656328,0.6436313684685615,0.5297467835330063,0.5478823430334585,0.6208034510437366,0.6146949507951116,0.5925083675917238,0.5459158277237064,0.49172886987127873,0.4670034850833966,0.4893646567942769,0.5099201198581027,0.4936257904939394,0.488775016739611,0.4745647662244741,0.44985992643041506,0.44945905482473014,0.4332023634795745,0.40084753873500567,0.35728340266882563,0.34442106598890687,0.3869221540721295,0.41664449415742055,0.4496419958982081,0.4774893725301905,0.4909031169711988,0.5429856287785415,0.638924280072942,0.7364430386958016,0.8272579310158474,0.8471276398245893,0.7582381052430738,0.6340680588539649,0.513412712230314,0.398081588398552,0.2915117673447618,0.33551261151322676,0.43984702888810157,0.48619180302825615,0.4891447203554735,PM
0.0,0.04614734355620542,0.10147762660169746,0.1446017306328291,0.15504589214621345,0.09745112858769533,0.035396091410857755,0.001996311019664354,0.015377550382572602,0.058444972827803365,0.1086070725241528,0.15824718068643984,0.16967899974616762,0.1387272245507165,0.11126678044076144,0.09811204733744505,0.14840990558210132,0.17110294120622216,0.14822636618996388,0.09174256570721928,0.0929258675330129,0.1550892597433684,0.22899222829870602,0.31022307282690464,0.39297114979665015,0.47146371190700886,0.5523970332611339,0.6316016020136839,0.7115910119211712,0.7894529347556227,0.8344442845813156,0.7801305330413197,0.7002370126371482,0.618989736307646,0.5395421121345956,0.4590426506460821,0.3793354053904383,0.30186776930896775,0.2273587685901708,0.15966609830884737,0.14216032832944125,0.14718381977407202,0.14948172393158288,0.1636343725544951,0.20162041800582653,0.22048614088282137,0.21758298369631257,0.21217292279365485,0.1978175248620837,0.19125659765966962,0.19069957828010842,0.17951853241010252,0.1459567291322328,0.13027131022964045,0.1577259248281473,0.18003246982777887,0.15957466525148534,0.10552756012895359,0.1113857289325586,0.17651600747121687,0.2517493580897445,0.3320174279695991,0.41038033409591645,0.49061968384663235,0.5690249195907593,0.6470593557043935,0.7259502260060746,0.8043235567559328,0.8326184827438297,0.7635213698388259,0.6852432713738446,0.602258959718807,0.5236214680336695,0.441048667605072,0.35685732523368086,0.27899856988628713,0.20869584935041452,0.1582711827340464,0.14269727322595527,0.14978917115275214,0.17772149261982184,0.2131575312135794,0.22954203263216355,0.20014433915939933,0.17217828360474563,0.16592719406158118,0.15665414874949102,0.1473532515892204,0.15292287760364687,0.14059117237113972,0.1095970179229051,0.12227907019055362,0.15670765208778326,0.1545594823549472,0.1075597732367155,0.09621380839699722,0.15548316453247635,0.2296697929587932,0.3061526036820532,0.3837684399744017,0.463946614853473,0.5420266612568536,0.6205192320532413,0.6995766345496228,0.7755400692306118,0.7899758194336639,0.7157286062742674,0.647753001785428,0.5707567411781655,0.492085399413563,0.4101892324134926,0.3315191350064137,0.2541152247760572,0.19008361490496384,0.13996203054125145,0.11828198008021884,0.126234764884247,0.141150475675629,0.16962109715634277,0.19093740792780745,0.17223821006851536,0.15688344473206772,0.15793739272258978,0.14747571170116158,0.1434880455271088,0.1459801976802213,0.13582772569267187,0.10751370682077144,0.08227761349349061,0.11705006778414484,0.14734425198961,0.12501975065433912,0.14823249944505745,0.171166270941151,0.1800863519914191,0.17723743969207817,0.17962104813641266,0.19148959033254753,0.18961567901391163,0.20503881830933635,0.22281268145171995,0.20379814737960622,0.17369380661032752,0.16098063217939207,0.15088633823923336,0.17581285726312124,0.24079256835972873,0.31632092698307956,0.3961218571982792,0.4760995658556848,0.5560516707542262,0.636572920670931,0.7159974813446803,0.7972708571658416,0.8773673607534838,0.9519122768106378,0.971143222712832,0.9093042609970612,0.8311724069607485,0.7515185471568961,0.6716478351980211,0.5936046817298073,0.5154746758692803,0.4358467753781077,0.35794678294048965,0.2802315367157564,0.20589861373650464,0.18344825688114663,0.19650893206871012,0.17890557686182906,0.14452745144139234,0.15900511045140786,0.18260824605213033,0.18000956105065358,0.18165328954215787,0.19176849026382037,0.2051482444153656,0.23013989213525932,0.2652042799775858,0.257722043180167,0.22334875083863204,0.18900779616900176,0.17670789399823694,0.18546451046684065,0.23682727371516643,0.30861078216459203,0.38790724854206426,0.46621924498532374,0.5487433380036844,0.6274279760937505,0.7091224295980791,0.7875512244632243,0.8705362811764894,0.9525082906438731,0.9946393371285625,0.947805556229709,0.872602739849478,0.794359368437231,0.7158435176233875,0.6366503813686542,0.557069293929962,0.4786441639532668,0.39485687912847545,0.3124460535291451,0.23493935003603372,0.1723588289061786,0.1897581451056669,0.2137630126083203,0.1992482852466162,0.17100738942561855,0.18553567545558747,0.21329962640758726,0.2195777531560421,0.2252193851105111,0.23728111814545993,0.2512032626084466,0.2584125823532133,0.2583999330445561,0.2351478048144624,0.2049452739367459,0.1953401644623951,0.18610284408879108,0.18749544000214313,0.22585040367794362,0.2934341587744409,0.3578589764306692,0.43620399826978584,0.5206213915656503,0.6037205479362058,0.6821346860960165,0.7653732525053922,0.8441712966997044,0.9197728205241702,0.9831270340040941,0.9999999999999998,0.9375134880791129,0.8574423988417685,0.7783425328547537,0.6941885224519049,0.6128885406355562,0.5335602957057908,0.45442718178748254,0.37350487850677916,0.29527647659441114,0.21885282441935083,0.17550186299469006,0.2027820141137162,0.20461589197301167,0.19398070822853253,0.17500121120619405,0.18989849454376406,0.21160563268199262,0.2078207729435666,0.19816880058256792,0.17962728644222659,PM
0.8980936484165627,0.8820337970790126,0.8741517934276961,0.8738251159626056,0.8736684905522341,0.8686398323051749,0.869823134454182,0.8684096009903532,0.8647571375218235,0.8647074804093997,0.8647186845355557,0.8669287860668939,0.8706423384046571,0.8566217279746322,0.8435705526670272,0.8379551102182159,0.8495247999748958,0.8724049252154091,0.8834950220756417,0.8858983265787796,0.8396589888837167,0.7858038958915843,0.7299950745441168,0.6706974627925386,0.6137785446072854,0.5606901184881978,0.5017387033372198,0.4423851985387808,0.3830336736457747,0.32486855577285556,0.27240308010892045,0.21408636705848516,0.15473707742674758,0.09660352209262313,0.04661437451106021,0.029350521662720896,0.07448745926238742,0.13355958897796616,0.1886074675500956,0.23751806092371552,0.28501685137044863,0.34370124896627285,0.40305450302528323,0.4624080364175289,0.5214521287189198,0.574819464428658,0.6313720547534318,0.6907021381987735,0.7488167461496531,0.8006955574570473,0.8411406562999733,0.853463171238299,0.8495425083752668,0.8479650480023593,0.8466452904697273,0.8518969078539971,0.8627259188142629,0.8778337182943212,0.8968840329967973,0.9148011496850965,0.9039789422122118,0.8792992402269431,0.8602529848684355,0.8533007268154136,0.8472768800539678,0.8530020283949886,0.8555298684623418,0.8520437082966712,0.8468174754886493,0.8494552888527618,0.8468422503850079,0.8467178272077156,0.8513702970857515,0.8488599568638355,0.8414423588545774,0.8234744272248549,0.8063548950758215,0.8084491957538489,0.8286698604083684,0.852704197093062,0.8640971628771117,0.886564801202836,0.87735849605453,0.8253571205063108,0.7700147930320287,0.710807397835773,0.6558051395624089,0.6010402815162346,0.5417845926547118,0.4824310440720063,0.42340177728508044,0.37008743401383803,0.31346631996784313,0.25413418774008445,0.19492432457001985,0.14061529885603952,0.08513362785937706,0.02722858136433859,0.0,0.038677022512365156,0.0908795780341225,0.14848366016160208,0.20783123256737523,0.2671848276150174,0.32653835207169835,0.38555348276358536,0.43883294140466433,0.495500727007419,0.5548352325296448,0.6141885008655628,0.6730416526258289,0.7259027696881919,0.7812647144796683,0.8224564100777929,0.8364003146584669,0.837417451819823,0.8413823146946722,0.8465042230020863,0.8529415648015524,0.868554949965346,0.883801494482328,0.9067168366066687,0.9295834730418813,0.9209727344031966,0.8942034402328016,0.8788137274839953,0.8682832739142285,0.8722721250463736,0.8804851852777851,0.8829271666697949,0.8829426210565667,0.8829510078812643,0.8848453485706598,0.8914682195717665,0.8920513122324769,0.8896760708696907,0.874154061515972,0.857032717351784,0.847630292239054,0.8550914344407441,0.8822061459310151,0.8984252563062232,0.915446461012871,0.95857038093211,0.9555805738395304,0.9258617047586357,0.9133873471992482,0.8903949670930753,0.8796915241070871,0.8912042656072356,0.9057888948631649,0.913603697633127,0.9139422690139909,0.9137259988938777,0.9091128594622395,0.910201898973013,0.9118818765211802,0.9057886721099937,0.9046757330884094,0.899601695359298,0.8963087355539001,0.9044116535674533,0.923884840233449,0.9501680658417055,0.9630956445215322,0.9484307300019725,0.9230594684835745,0.9021060981745952,0.8865262718957654,0.876906271580983,0.8695717324059611,0.8681195118580147,0.8642189933158695,0.8636629135959115,0.8530653053239996,0.8156918329374436,0.7625278765213939,0.7101103288997723,0.652263457939763,0.5929417245209911,0.5432488958501309,0.5666045610967778,0.6252727780912761,0.6841988677769524,0.7371805074293825,0.79415060363622,0.8491631163849953,0.9030168042945186,0.9536541070054425,0.9806304244014077,0.9513515784149815,0.9077599147561914,0.8869505092367125,0.8709102800944097,0.842681788537923,0.8364512534604802,0.851747639415539,0.8690942247498199,0.8771214482578322,0.8774720064843424,0.8774720788624164,0.8774720788624164,0.8774723469293579,0.8779818947402265,0.8844471194180992,0.8832820846878828,0.8741780784978046,0.8750494977815944,0.8816624581829766,0.8995416003287777,0.9244895760975167,0.942849244931885,0.9415897500524144,0.921446166666742,0.9021938462273418,0.8865907016294425,0.8759401168207281,0.876242186726955,0.8774693484072402,0.878504556446331,0.8813636809598011,0.871734405723148,0.8367107129503526,0.7804334240799193,0.7211986272916986,0.6669696669279688,0.6408161606139071,0.6809741523307253,0.7387752080954246,0.7950937752357519,0.8486307738442844,0.9057381929593258,0.957585775859858,1.0,0.9950828846450026,0.9461789610071434,0.9096257358068127,0.8988589075374094,0.8783757049461758,0.8625403450254812,0.8751806301565779,0.8875207977987092,0.8953362870552828,0.8910382048734711,0.8930116505997967,0.8941051251194649,0.8878228863611126,0.8935146973050097,0.8956963675461103,0.8957072195095837,0.8957072195095837,0.8958552274882183,0.9011863458762199,0.9132167595086012,0.9310368384414116,PM
0.6924964699032738,0.7105399203188978,0.7376005734828643,0.6655861273067791,0.5289915694492713,0.3965121867539301,0.25306576252552526,0.13477833592498767,0.08739584298680114,0.06770626866131702,0.10725897151565,0.1851560944702184,0.2501898898425212,0.350278257877076,0.3910523773181058,0.29465767015682776,0.33542601529565674,0.44803929212993854,0.516023082211309,0.6185073459552175,0.6748882959093052,0.6607584808968108,0.6430439596174926,0.5932267203843637,0.5204487818221684,0.45681806665783764,0.40033292759120487,0.33953478683422444,0.3190576609664717,0.3775076256685077,0.4525758967138751,0.5088007872112312,0.5521809169028269,0.5566887155251123,0.587064216993733,0.5989399310385091,0.6050443798245166,0.5820735360189091,0.5399881745367292,0.501442858594547,0.5241346442129622,0.5740344478477293,0.6357929046134054,0.6490218284642069,0.6665414595593062,0.6115932205820469,0.48409084580860684,0.35054794429444414,0.21535489529609952,0.08516667944417433,0.0,0.07015802236328827,0.19895304041467288,0.3372315844895648,0.4800731253148327,0.5947780095229072,0.704513762532688,0.6745319649388377,0.6007993081243863,0.5550733520310649,0.5325638687743988,0.5295917054998571,0.47700021282578176,0.41935095963262636,0.36327985804322305,0.3356740971345249,0.37161305364675545,0.4371261402805211,0.5111018266580891,0.5764635753031917,0.6043624089223205,0.5780047147868554,0.5832618811426542,0.6037770473156439,0.6197669726242645,0.6266955623701351,0.5932568140218271,0.544479355080151,0.5539703524033941,0.6079338532048446,0.6708239972068988,0.6910994390976888,0.711614888009668,0.719733631896323,0.5959005830834827,0.45029742718327537,0.31710087418621,0.18107262591959472,0.0882276904201027,0.143841642893217,0.2753661297809473,0.40513167105017045,0.5471203793682986,0.6721482511092605,0.666172484227118,0.6024769749774777,0.5544228687152839,0.5265607754904393,0.4880979410760129,0.4334274227082111,0.3732158152935807,0.3373061086779052,0.35988091380310383,0.4241180080163254,0.4938084448052886,0.539051669226204,0.5595721038713002,0.590607195965489,0.6199384429171002,0.6378536486885826,0.6414323153638248,0.6635243674211004,0.6646166806651146,0.6378968392346236,0.6094478682095108,0.6288326321433346,0.6713019126748732,0.7418064468330234,0.7835435455403719,0.7969408424214532,0.7132209788027697,0.5758705276548657,0.44386913477895096,0.30702446516700155,0.20888003870324834,0.2419928062914556,0.3768212197053926,0.5208343237073523,0.6505276732936962,0.7690958346111603,0.7606278705712306,0.7481578988519035,0.7385199166859793,0.7035952730199742,0.6531304112808769,0.5841414404815959,0.5418672232928232,0.544830447134431,0.5890300170601082,0.625711144957509,0.6963841908873523,0.7521653025647459,0.7944586744884226,0.8136762837635176,0.8191958239740424,0.8650770052703134,0.9170947891153829,0.8484916859167244,0.7252190197982009,0.7467670797052053,0.8723511962094865,0.9541295523459037,0.9211107899919959,0.8501672090403294,0.8235223171726944,0.7719805728233093,0.7042888249556549,0.6874718853556976,0.7007794571368775,0.7303300890550903,0.7249544095307052,0.7122375704875523,0.6962753754365143,0.6803634618207175,0.6521883966684219,0.6286049148214241,0.6120330237990408,0.5636727546775373,0.4946620485756412,0.4296302792461888,0.4237235212890722,0.47810266180197836,0.527577136032856,0.5746391675049876,0.605714984979512,0.6447262127713902,0.704507643626465,0.804421021730358,0.9307871323493906,1.0,0.9230380948674219,0.7918792182436936,0.6669386940085791,0.6432565434718325,0.7604307078457153,0.8612630343723708,0.8406824107717261,0.7717439394359924,0.7650590323879674,0.7195173302396971,0.6595409150878884,0.6219655191848301,0.6619354423372474,0.7005428619046521,0.699245387392192,0.6816613072826909,0.6675755732201121,0.6522538758534333,0.664594159292796,0.6579140424751353,0.6080600963595328,0.5400220936245987,0.4633409735829699,0.4170472693124361,0.4436243768707775,0.5017766335007359,0.5571961913290302,0.598653478031649,0.6116598879002333,0.6632051184449264,0.744286299029941,0.8523234693283572,0.962813229365135,0.9848373363693734,0.8741572204609538,0.7402346755185798,0.5979692798533778,0.5158914020518148,0.609805093138784,0.7335561123179053,0.8088975203094146,0.7564348173263093,0.7267428252201187,0.7095512693953063,0.647836799478072,0.6000321915570725,0.6046779333954513,0.6418333792421222,0.6677337274395061,0.6831505636383848,0.6693461325160075,0.6466361862714458,0.6244404258616325,0.597719128539064,0.5547921257618675,0.4848152117652993,0.41546355485921316,0.4146735821325054,0.4781653645729995,0.5326571928767936,0.5967323338076929,0.6657625148088324,0.713237246917144,0.7250817442407747,0.7301527497780897,0.8043060628520728,0.8465375861526305,0.7598160877150666,0.6361999734060788,0.6651548823275415,0.7945855063278477,0.8872717055577866,0.854681322777803,0.7909791156755843,0.7628547665256491,PM
0.8179485587124677,0.8234454450089039,0.8253698213078211,0.8118769612349297,0.8243270099281399,0.8395642298147732,0.8556038161044901,0.8543115335562206,0.8557057452443151,0.8711406721757684,0.8715580178239346,0.8602875306206772,0.8211955299927798,0.7718547462714231,0.7372936124896743,0.7632293816540705,0.8288529807697533,0.8478404449057755,0.7883442221770931,0.7036170141486817,0.6200509769651639,0.5251297793386356,0.4306647890412636,0.32699791885248475,0.21998869576556235,0.11331002323871253,0.02187653916057508,0.0,0.07247184102993964,0.1736856684995196,0.2668846334670736,0.34886535938245444,0.4342244377503435,0.5326151521689897,0.6248448549667507,0.714625789110046,0.7855938128700966,0.8053711688599221,0.7866843696298185,0.7663656914752695,0.7433552136878419,0.7451839700812868,0.7505506901869383,0.7875742999043371,0.8184314923639109,0.8485818542816213,0.8612811572217551,0.8429030666862101,0.8335882009351812,0.8434120052300447,0.8530030949575194,0.8771412922347852,0.8892342265674884,0.9012359714009932,0.9146648732024807,0.9196511460041563,0.8848888443645095,0.8414300227278533,0.8231439579503594,0.8639574534382399,0.9211829002536334,0.9247834401978134,0.8551305942409706,0.7674818631432148,0.6838899099628515,0.5955810965088828,0.4916827910824719,0.38603619084210283,0.2915364165800667,0.1876386052908896,0.09572805446233579,0.09286462697022735,0.1775114722062714,0.2709426375473285,0.3690155836177218,0.4659874137156672,0.5644570285985333,0.6603974074598251,0.7507830506978972,0.822396669758358,0.8434005118872459,0.818445823177703,0.7998172237551588,0.7819210922826718,0.7600051548962719,0.7529379240556073,0.7728706293090242,0.7864671905297262,0.8141153150323244,0.8118061093153348,0.8057741978496575,0.8050229161941513,0.8156571159182788,0.8151420843071833,0.8104654699746976,0.8160196526983934,0.8162048721137585,0.8114417523203659,0.7777823906243375,0.7259752104195774,0.6890489566728171,0.7124868107462681,0.7775324216781683,0.8107856580001793,0.7601455777570232,0.6764402845555009,0.5783131516848443,0.4837060481380764,0.387320265718877,0.2870380116832356,0.18165796601648632,0.08747041589523441,0.0025893816700137684,0.012731644721343471,0.09465664057856094,0.19302666659099676,0.2884445017253561,0.3837825671138466,0.4858014035805587,0.5920768067183535,0.6805568457623954,0.7348993570120781,0.7450891484459135,0.7289725505900391,0.724809415653958,0.7298354830561284,0.7229118963954355,0.7367292587728573,0.7243104107947289,0.7174149958295133,0.7197830380529302,0.7155681020499283,0.7161742986777888,0.7350999139208056,0.767454865348407,0.7859892171159726,0.8222712946982602,0.8403828877436559,0.8131665987328516,0.7844263935899871,0.7732178850927189,0.7799602279751059,0.7858989809726391,0.7841465887828272,0.7994569149918846,0.8050400500327557,0.7852621395344661,0.7878052485360159,0.7878966943319261,0.7888388223215896,0.8104694271074786,0.8072041979743294,0.7822627163022395,0.7240809202505583,0.6402183129047718,0.5477250025335971,0.4458536568025795,0.37110597353767405,0.41579004967514477,0.5100052983139705,0.6041795775874759,0.6900021348613685,0.7755943226524704,0.8519251784509332,0.871946635660354,0.8427780472864064,0.7797421451359154,0.7560966183556435,0.8070763285429998,0.8559841594054576,0.8842215856657445,0.8758509605140801,0.8732881371155776,0.8724689262128602,0.865475890203105,0.872539499691162,0.8658622025389113,0.862041988195549,0.8664592804615014,0.8730523490979634,0.8641221701421946,0.8301789565594242,0.8023367300878479,0.8125031163196468,0.8355508229719368,0.8554927767197444,0.8762280126124553,0.9086406608997999,0.9069138943389006,0.8717235814567621,0.8062252261084302,0.7201866355607143,0.6238493637339118,0.5295548240173389,0.49396191666360867,0.5859760988859208,0.6809922532476076,0.7646893545180018,0.8524714410230962,0.9342500125713658,0.9884676976237783,1.0,0.9542725742384262,0.8927549613619914,0.8875036519165405,0.9256683770495777,0.9698388812961993,0.9815231350300531,0.9713139545722047,0.9661322514531356,0.9427994218149189,0.9306567941922941,0.9265718600545303,0.9073696185525746,0.8956849426374971,0.8850362323877761,0.9048148264051337,0.9171874082790734,0.9129534912213217,0.8843061592733608,0.8529043110713217,0.8191860487799736,0.8064153363373441,0.8111185337728877,0.836990120936409,0.8590324753984118,0.8658324706269815,0.8240796344357433,0.7652822175298302,0.6825652967706213,0.5906605670323408,0.4973356162686531,0.5011910867833365,0.5902082093239911,0.6832257521646183,0.7752202833633679,0.85918582720263,0.9066113534507747,0.9141678083050713,0.8683186974069552,0.8106648403258787,0.8257114738502653,0.8720643187869097,0.9190481865730655,0.9320268531608469,0.9381836202699607,0.9217999469432852,0.9185054048608983,0.9197103550694363,0.8978161939070479,0.8841696718934822,0.8815737774357735,0.8766860503859482,0.8768725376626754,0.8733089895215587,PM
0.8233416479270708,0.8075252627805738,0.8115453083109014,0.8435581325982597,0.865013411353095,0.8855554190774186,0.890931791006591,0.8923776187697108,0.894024017535612,0.896385468998742,0.898054140090963,0.8982491078571124,0.9034970379665155,0.905125376310822,0.9027296361999371,0.873925139708736,0.8608258824076516,0.8902407022795793,0.928412001082509,0.9153967115453474,0.8385148557518214,0.7458167712886845,0.6600267192283118,0.571196209990058,0.4776805925637062,0.3847660873577545,0.30010775519081423,0.2098836541361091,0.12051503107496475,0.041199165685098516,0.025728259232363992,0.09810006544601713,0.18569120085759327,0.26971371925255894,0.36209296238775224,0.4526205294751915,0.5370859079064148,0.6283787587040695,0.7121979450666547,0.7977798210985183,0.8723425509017795,0.9153079001974187,0.9222931794220468,0.9205093368202579,0.9109439774573884,0.9024276714582689,0.8807266120690596,0.8570284210519268,0.8482265313231481,0.8626083275585597,0.8910940371577007,0.8967428168807907,0.8993702728003274,0.8960391855264467,0.9015103597194152,0.8957105238060787,0.8905015383671979,0.8880154104228533,0.8954044399018821,0.9006224739263167,0.8970637327770663,0.8996882662906076,0.8720950030663461,0.8484687227628447,0.87035583672467,0.9132719914899261,0.9146840487868526,0.8447788806454355,0.7584271362571404,0.6650732604532412,0.5715031547743303,0.47793303253452435,0.3843630222235317,0.29117696195858933,0.20572916091280535,0.11677585474828289,0.03325934660304419,0.0026550419195372488,0.06854515776609671,0.153831846494888,0.24233932797084412,0.3288437581682746,0.4167666880693328,0.5054785977810734,0.5912814817286443,0.6817822234258653,0.7660397584108027,0.8533844391543672,0.9028501616978271,0.9162225768217058,0.9140756540424646,0.8988456575293879,0.8842098763481414,0.864544321485647,0.8403220982143935,0.8309631269236757,0.8537091588593335,0.8812640947233228,0.8875416840487866,0.8909161636214922,0.8909818991677008,0.8909837204082116,0.8921844935657237,0.9011643029182119,0.8983403251821698,0.9034110956268866,0.9036280875164611,0.8937569079454146,0.8706096127746443,0.878837367420199,0.9195119185631593,0.9415002329978015,0.9018108171979837,0.816917975009019,0.7235372368399315,0.6343859899762847,0.5488673907351755,0.4556784370558036,0.36236770743585556,0.276208479301457,0.1878195738647508,0.0980663243937876,0.01838665673474793,0.0,0.07060484556036495,0.15778162373394777,0.24243070425148172,0.33250753528062593,0.4220541761488674,0.5072049779463101,0.5990218571329924,0.6829989402160139,0.7718336500540195,0.8537209105204608,0.916602970425108,0.9370560536644428,0.9426738801390147,0.9753112188118593,0.9821919908090302,0.9487693803405008,0.8915173851895517,0.8128166132254444,0.7239578784158152,0.6398997586477517,0.5480171913676615,0.463124094750901,0.37373668946780647,0.32042526466146004,0.38212785941458316,0.46945653153589384,0.562904819217158,0.656474941456964,0.7500450636967697,0.843374341496272,0.9292486217591533,0.995939719339721,0.9932790005962095,0.9685020326051954,0.9309464938746808,0.9195738208672006,0.9433037494448793,0.9475547294340512,0.9411440095926253,0.9384769979791097,0.940261128608995,0.9351924653742776,0.9348216538094518,0.9329155681291006,0.9326739265105148,0.9347902901284768,0.9306866418406856,0.907324027741232,0.8821592345145226,0.8814608665302273,0.9014837997678082,0.9249909141202108,0.9404244035034997,0.9563598514251845,0.9633016632006042,0.9622477156634828,0.9376299172851112,0.8858389119393926,0.8102687039487178,0.7270435257813528,0.6355267531825788,0.5496777171414562,0.46097587866991296,0.37808856712668515,0.3916786716459397,0.46245021267996544,0.5378692163965149,0.6169609424754352,0.7015538590798909,0.7944248734091093,0.881797367346822,0.9607791001119916,0.9865448262648142,0.9612461766649076,0.9231779116293057,0.903668393873684,0.9342197307703244,0.954187305090985,0.9488060968373779,0.9448824124307373,0.9356470512146386,0.9359568916919287,0.9454412021788272,0.9476046849534407,0.9431930609521362,0.9427724116848046,0.9352694562178745,0.9229431899385858,0.8984150693421031,0.904203636492662,0.9234624798286784,0.9410571068419156,0.951753538368965,0.9597335790528274,0.9648602487208047,0.9693542601850362,0.9460153747521152,0.9003452679787549,0.8266701194121744,0.740944256619219,0.6571116280917977,0.5649253125701499,0.471358432208415,0.3796722637540686,0.3534567438968059,0.42955814394997005,0.5102310375953769,0.5856892296315495,0.6771621752789616,0.7620461387828463,0.8518043416844554,0.9381709825571347,1.0,0.9891836092764303,0.9732838674286755,0.933054068140712,0.9089143340210635,0.9314616565893288,0.946974541452386,0.947730443860384,0.9477309138450312,0.9476917066608381,0.9435863004334761,0.9352592048138857,0.9348333536139242,0.9343585948995381,0.9236325033800221,0.9008183884612349,0.8792026245867781,0.8601146748748412,0.8728657844094192,PM
0.8334277913966648,0.809578005338883,0.7910371768549032,0.791361115904716,0.8350004626051228,0.8589870336120262,0.8156299231616424,0.7184718579123288,0.6262189524794493,0.5280471441443069,0.43299742434194743,0.3380599240559792,0.23978955814803515,0.1477113243235595,0.05588337466027893,0.02959015395485154,0.09821269476010253,0.19121263824865187,0.2920062139065056,0.3930521933818616,0.4900357313799024,0.5832095656524179,0.6806927105493077,0.7702118596249259,0.839420006361155,0.8623429876182176,0.8557296924467834,0.8398306759484664,0.8122031106326386,0.8093441087736089,0.8104411922052497,0.7996954082513692,0.816442619201059,0.8215842722553897,0.8236876238995305,0.8244261560708372,0.8044446837344086,0.8054559546574722,0.7988736693254739,0.7947535149817526,0.8189816343347813,0.864976289652047,0.8778548918079936,0.806421258162332,0.7150558101293791,0.6242656777289248,0.5411392722142838,0.4499592643094279,0.35051291291044273,0.2579519861678068,0.16242974389090392,0.09955172687363678,0.14295157049373652,0.24002970554574898,0.3347955268955236,0.43001998765032523,0.5280672064423655,0.6203760893564756,0.7175509709152423,0.807106352661507,0.8746392157474798,0.8833639211564981,0.8635727688680344,0.8540839123802508,0.8439409502535729,0.8313024765887278,0.8148724537927416,0.8067153014951665,0.8086639808263423,0.8177927133843663,0.8188921687520001,0.8174260112292566,0.8032041373405538,0.7846598052872944,0.7735224504275873,0.8012889269713257,0.8401755543193754,0.845785402301207,0.7698498577726094,0.6745293913076866,0.5801121295308305,0.48013110519505786,0.3879425690310889,0.28981263310691263,0.19614411030316004,0.10384346605636385,0.06373819321978091,0.13411649762887645,0.22631423215480506,0.3219591648840563,0.4157643966304665,0.5138070055637862,0.6060336170629153,0.7032786436617022,0.7914218408264209,0.8543325563722333,0.8678005181713073,0.8592646677641251,0.851923558889603,0.8407905346464728,0.8263928677883301,0.8291470196132404,0.847467834897812,0.8361406199624482,0.7886873151757177,0.7755607061241057,0.7908689946291301,0.8033586543768771,0.7925417049845078,0.7739511585416061,0.7735677169047601,0.8024227194816673,0.8378113405098853,0.8099632997087747,0.7235577148212187,0.6313501107713608,0.5311006499900199,0.43443344673364037,0.34096573385036755,0.241223170714302,0.14914131893845006,0.05385636503052438,0.0,0.05521822790241804,0.15018035544124864,0.24391215429916913,0.34014178045558396,0.43735331220301954,0.5302215287905225,0.6254749648917293,0.7176274647964342,0.8013531044313151,0.8544206471244336,0.8770780359196231,0.8402498341435594,0.7632871674980033,0.673534774008782,0.5771619757440276,0.4850584960537563,0.403856507701434,0.3236525931200913,0.28307796755197545,0.36214463325959967,0.4617514244572567,0.5536448139431749,0.6527573486304266,0.7491737293035736,0.8397215707103698,0.8985861426571475,0.8854534726573309,0.8702261124709818,0.8267793669317445,0.813426860909858,0.8303948771525154,0.8356424680145473,0.8259928248626871,0.8154519592300231,0.8454847474605092,0.882422444174155,0.8798799372482249,0.8653682114202137,0.8670157111255314,0.8792786632442955,0.8874992472956771,0.8977704436699006,0.9036787578687624,0.8974296167019682,0.8531148595660196,0.7751717933458229,0.6825241204697532,0.5818808940645404,0.48881779689924354,0.40732570428684034,0.31792075480554427,0.29307974460380404,0.38210852832160414,0.4768498460097341,0.5720876100870207,0.672647523437399,0.7658763763118006,0.8613547489275193,0.9421795499538497,0.9451423683926949,0.8925982526621155,0.8596851544145563,0.8173551058017747,0.8186525038124264,0.8325397494951978,0.849415463549964,0.8522202462467312,0.8517934108113361,0.8523622611857185,0.852094621713005,0.8455453581774324,0.8461916411883188,0.8558238807757343,0.872167227059325,0.878161024763058,0.8930949470736038,0.9066863362382722,0.9237825910907922,0.9204482749087053,0.871068595687466,0.7854469255268788,0.6856724193948689,0.5934701032144787,0.49514178606917514,0.4045697411133864,0.4191661599896157,0.514523640214894,0.6063903918258451,0.7057559754959923,0.8050974952942018,0.896734291701905,0.9839447057393664,1.0000000000000002,0.9366748867141401,0.9034525658201835,0.857075981320768,0.835720896091732,0.8449506827246249,0.8533590933343824,0.8432754275202397,0.8586306324724637,0.861173999768672,0.8590830240442491,0.8530197694499566,0.8442487297367516,0.8558873932643916,0.8551689136880414,0.8536387446318756,0.8710626785565865,0.8901645744062423,0.8919885327928456,0.8960656021701514,0.8649035305109118,0.7919976713366979,0.7011459300503116,0.6049756916782643,0.5118382917986908,0.41200017458901517,0.3542686004636424,0.4236541109318517,0.5157056106694669,0.6138154438295504,0.712605294704334,0.8045930122069287,0.9001400917898283,0.9560243781397457,0.9187569631896795,0.8911272163573332,0.8500992636606803,0.827285671336006,0.8470931628050626,0.8692671732385893,PM
0.2629417981856905,0.28774107135527327,0.3189149871391148,0.37587210662105086,0.41653597987264224,0.44165979905031616,0.46381189520172583,0.43999175581327865,0.4025108323315747,0.3956916175979108,0.401003710074856,0.3788297016288924,0.3297322099180402,0.29471904532518334,0.31316006667509466,0.354050529864959,0.39562107400201896,0.40158403861214786,0.44728249882461313,0.5475330386910242,0.5717330846911199,0.5012113811409531,0.5631220321483354,0.5981932062766449,0.4864125772605563,0.40359606954180904,0.3746042095801698,0.38182999977818,0.36756824139228517,0.3479894766453855,0.3476751942144034,0.3869906112428394,0.43876776930351813,0.48178388197113,0.4839297817800814,0.4569958526783928,0.41022843754776517,0.37655229874398444,0.38877343611018933,0.3868205002837266,0.3664874661368991,0.32325385825538433,0.26867780794687235,0.293399860416085,0.35961510612512715,0.41826096731113616,0.43238058814851676,0.47814035276112143,0.5508378501411526,0.5069905230825844,0.37211303677066354,0.3088362897343888,0.3978588363769999,0.528049967888256,0.5857370530429931,0.5218838578735268,0.47936421480622027,0.4448076124047553,0.45793585803403225,0.4855473630358693,0.4606047308178107,0.48854760908030226,0.526514711298363,0.5684299085768956,0.5827131986472676,0.5486563096566499,0.4966512120407387,0.44056514496263954,0.4114660005250572,0.3957277638412542,0.3718853492292782,0.31072647417082866,0.24184623415694873,0.19036077153145925,0.18090303189875012,0.23092706423947984,0.2930085021026292,0.28740851420856117,0.3158055269859572,0.3178545586198087,0.17898230310475327,0.05097994707678932,0.0,0.09467322702638548,0.22789167053979398,0.3380995390555581,0.3029447486693657,0.2846471608346999,0.2684641190501278,0.2573427639274044,0.2607761358784808,0.2935769025120134,0.34822720147536135,0.386553401010973,0.3846957380453153,0.3785027658956128,0.356406622540983,0.32422381288381086,0.2942297557583222,0.2862690383619011,0.2938238851982957,0.2565965277888145,0.2105738282791867,0.21019640029464703,0.2552994342307455,0.31055664526728055,0.3523013842770588,0.3524744779643614,0.35855394409402397,0.24638367924851412,0.16907398239762372,0.22546461019204678,0.36055954897484366,0.4775998390589651,0.4416880052516188,0.3276452836728634,0.271543127176181,0.2863590503348137,0.2944811719114009,0.29241268935952114,0.2933102631340816,0.31204461501002534,0.34380686107283953,0.4115964639184817,0.40079893513413456,0.37956049743961806,0.37902319164368414,0.37903062221320916,0.3840178391761846,0.4548433162357375,0.5829860084997964,0.7357970784140413,0.8859027170658731,0.9857793329470637,0.9620830168221772,0.8290009467175494,0.6939906305817614,0.5677530201382517,0.6033568812883328,0.591601675422301,0.4872528519276642,0.4352058003914765,0.40635453038446734,0.35422785525836,0.3012376059382511,0.29461345507437375,0.34615560494185704,0.3725483339068667,0.37900256128881793,0.3820104022355224,0.4114925021831368,0.44887820173655246,0.4623761719492192,0.4774230587745265,0.4640254650705362,0.4240233934945268,0.3702932780877157,0.3340233212583561,0.34930173991568036,0.37173971951166784,0.3806576658857663,0.4306447290473585,0.55525404151222,0.6852345709205663,0.7907173208370493,0.7625745308392515,0.6297433155672723,0.5027130440956089,0.5527741360175078,0.5813053247943101,0.4783126388402703,0.39290627637388287,0.3932475910962365,0.3614971810479064,0.2952011029100525,0.26095137839542737,0.30487502249295684,0.37401575633206097,0.4335819718546663,0.4797220427864817,0.4737766052202934,0.49428846298495976,0.5385619574863023,0.5960724353631326,0.6443225405350201,0.6745840701383541,0.6633544274870564,0.6376788195196026,0.5787155500353496,0.5527538715406521,0.5696877678831154,0.5534444617641796,0.5680820896675751,0.6111605227905779,0.7100824042993592,0.8338976117728718,0.9361777139296938,0.8978742948875329,0.7790078638909463,0.8302100305062599,0.8500005434285862,0.7571256085231264,0.6388687668085389,0.5581341908382242,0.5250396919198144,0.46574333783920263,0.40164460054280493,0.3690383646337283,0.4178547269245483,0.4584224572594362,0.48460490875010365,0.47885375562831634,0.47940636296783534,0.49711179083210233,0.5510923083333967,0.5547894540611065,0.5706980894608975,0.5635994876540096,0.5083321291550202,0.4640732104434333,0.44182688853284535,0.4467236355955908,0.45609402354064876,0.4815357444388484,0.4740065900222863,0.5527247396921808,0.6804294333403611,0.8150505117776827,0.9435903688014324,1.0,0.9123553611150417,0.7919016007892505,0.8264546654421991,0.8029646026023665,0.6951953256586618,0.5816546805390912,0.5110647868349698,0.5123811265876732,0.4612763302918754,0.3941971449384951,0.39797796619398706,0.4428502347873433,0.5131020411675351,0.5213410173088278,0.46948754541407656,0.4683121048277048,0.5054945555598849,0.5324679665580181,0.5572470639161606,0.5386066865486816,0.49984839680824233,0.47187213569104003,0.42423689343527116,0.38335347278814513,0.35582913679978834,PM
0.3962560592790576,0.40453691262294256,0.3493789036017143,0.28826348118227973,0.23219242267165296,0.20045051771120348,0.20077181019156298,0.22142405990491087,0.21192577275643143,0.19557437585640725,0.2016175701142109,0.20305547481678166,0.18591360241876864,0.1863329923477839,0.20321834128647986,0.20008750662363295,0.19672379972779042,0.22347955279284526,0.2761066848216409,0.24319191164782095,0.23154607689392193,0.3118102591066523,0.40065184534989906,0.497601094415985,0.5897603463822969,0.6598948248110295,0.6124326719513717,0.5225725220453208,0.44825800258993165,0.3623113406966214,0.27694624696295356,0.19776851965191633,0.12504774952188824,0.06859516108486763,0.046523996733894624,0.045245311618154815,0.08118920809447361,0.13452277306962146,0.19957540387244932,0.2708001375314295,0.34690214616126247,0.3989408172474944,0.37176676503025585,0.3056851062841328,0.24589717175239278,0.19842738864153042,0.14417958890309168,0.12110062237998931,0.1482266876770193,0.17248934538483618,0.16522493293358198,0.14842149190002307,0.16080072460923733,0.18591076285114183,0.19842453746566435,0.18159912940091893,0.18302252353270476,0.19431996475050073,0.19165734888228214,0.1720962894952789,0.10721970451792262,0.07191563149098545,0.13338841309653082,0.2269131749055473,0.31604059020463793,0.4131510978377626,0.5004151380657527,0.49023940051482984,0.39948070594455065,0.3133185512265617,0.2354249504510244,0.15386438155179705,0.08110932700535467,0.028647109423352246,0.0005783720062526587,0.0,0.044517504819048925,0.10120042331814227,0.16144230166088325,0.23300437490593606,0.30328521438267075,0.37048912901534714,0.4375550572608191,0.4470815555321186,0.38715889176051044,0.32755410383807715,0.2670826484627262,0.20919234946033716,0.1777795653048131,0.1783199686224386,0.1862847358362243,0.19008876638421168,0.18502525573843154,0.15544821154840327,0.14427097487954943,0.15687581668229167,0.17511558144273054,0.16232942604542644,0.1550557940160211,0.16460287545516672,0.19662026118839004,0.2126909881423662,0.18479365211664,0.1704814041386553,0.1826524555907969,0.20833243095945364,0.20205009707127464,0.17112209539485135,0.2313701864035964,0.32416649297706157,0.42202493882263625,0.5073345072016247,0.4894344866744629,0.4131590011238233,0.32634164898383067,0.2394251800731897,0.16196917919805087,0.0925212384640286,0.037297623072910735,0.0045461266964330616,0.015134842746295618,0.04736050864693775,0.08582075498299191,0.15518215502595267,0.23161256159098742,0.3148359953015898,0.4032214197013271,0.4955448680705128,0.5871211066748072,0.6791135725635729,0.7747730941299469,0.863079915952121,0.9382328909003494,0.9134323669442603,0.8249461503307642,0.7309605302466673,0.6412284727507573,0.5442345023988813,0.45445098040883125,0.36849986872100016,0.3314494986935055,0.2719889763495924,0.22097946055732076,0.208897551872268,0.22641110620044258,0.24611387388231765,0.23896369738348944,0.20668098521503242,0.18703531802621787,0.2006299337304649,0.21917612612393245,0.2047261184137248,0.18248989235965785,0.19089461250002526,0.21726545203521952,0.23239263902051488,0.22772742888312014,0.22035074480756278,0.21630281297126808,0.2560310233278795,0.3149489274103512,0.37525959020779864,0.43833594936104014,0.4981052835448929,0.507551117681116,0.45118605813873613,0.38189661610521886,0.31042728207652703,0.23770457958205182,0.1730465386609883,0.11341203060859884,0.05463171982049442,0.03263084366268232,0.0603367437729867,0.11830214527054195,0.1925724451169455,0.27713969100614455,0.3668509344550219,0.45549707701847875,0.5496111171926523,0.6382843274749248,0.7343355404290863,0.8315447236383255,0.9025788325805386,0.8739265382969175,0.7876887342262819,0.6945058744998371,0.5978823288215962,0.5092031423083239,0.4135417205878549,0.32641238052980337,0.2959879585960683,0.26774035353154857,0.23550683961704855,0.22540723497049497,0.2196206008342909,0.2291574231663256,0.2444855497271916,0.22822860134216572,0.19784894275730935,0.1950826672689956,0.2170703828825966,0.21101376594801935,0.18576011477630172,0.16169795582603785,0.19511392164202834,0.2491986425234518,0.29979144542037806,0.365074312410542,0.42565221002285125,0.44209422282510524,0.3936086553904594,0.32322457434082996,0.2532557127189754,0.18418850496203132,0.12285076085580005,0.08014218217149893,0.08351084534707232,0.11957905584251782,0.18279580906341253,0.2659464797953637,0.3530641507045227,0.4407676971370409,0.5339837798540665,0.6231655224393269,0.7177866885857,0.8067375703165551,0.9023298966162969,0.984504428473781,0.9999999999999998,0.9225123954646464,0.8342145484332859,0.7381577426640649,0.6402048165304508,0.5422700916292229,0.4495241727503376,0.40404341830657464,0.3560726386506794,0.2802639458385572,0.23860857557357318,0.23491053829966924,0.23394086140100012,0.21911971983450607,0.226447478106232,0.23478880477019026,0.23329474585173426,0.23716354101599646,0.25490628221649314,0.25594700935356207,0.2394169090987346,0.25538456650895136,0.30957019816802434,0.37158310523658566,0.4283007426850365,0.45689386545208355,PM
0.7146660848328856,0.7132697133667711,0.6979816870641746,0.6869446666090526,0.6863849279984862,0.675290612911094,0.6436834293715463,0.6213438713259996,0.6370245896084941,0.6712246657529881,0.7018898281274086,0.6959090903469562,0.6275798919199882,0.5465029443740634,0.46509760697655067,0.3801856725593906,0.2963935593633755,0.21360665791708655,0.12777894568611803,0.049162129341715266,0.0,0.04597552115391035,0.12668049857154573,0.2155371638887269,0.2953745031285726,0.38301434829893544,0.4725860430161075,0.5530742253172904,0.6385030862747716,0.6880261512562174,0.6733554764249894,0.6461877163317176,0.625837081353932,0.6088650741532422,0.5940959833133601,0.6111002071668403,0.6388183613054965,0.649278924355204,0.6580871068113721,0.6601504071595217,0.67437270087915,0.6859100395229756,0.6849748059801908,0.6710145252351956,0.6576582929902861,0.6377537133492435,0.6098236478193424,0.575746582207888,0.5442882271187444,0.5374842830696573,0.5575945458841038,0.6012251170787659,0.6609645239457007,0.7233457421935852,0.7648461855277418,0.7229477599036531,0.6437053622748865,0.5609591536810348,0.4778015930109156,0.3923041602632742,0.31166503211859076,0.23287293421844524,0.1952353230997208,0.2559994548619444,0.33647285788910275,0.4221690227745116,0.5118103394647247,0.5925902853245233,0.6787601049482002,0.7676293149679065,0.8470399096839583,0.915090968436916,0.9399468876054227,0.9581856799416684,0.9650592463308512,0.943741266695935,0.9091806528298314,0.8745810140033619,0.8397016848226337,0.8235210033684208,0.802074964413187,0.7707660351079915,0.738322933788101,0.7288386872421173,0.7307974691345847,0.7248065665931638,0.7056467225469689,0.6965852397508521,0.6917116650798627,0.6826685976347708,0.6577632496376793,0.644885364771324,0.652014394914511,0.6870519940312712,0.7121897278368248,0.703178320859762,0.6330198350872822,0.553335602962856,0.46709118306200703,0.3848081046634937,0.3004458915607011,0.21420211967251124,0.1353900306128062,0.07180170436760336,0.0951452967567763,0.17769340897225483,0.2574646661575428,0.34657896242719755,0.4364183817566525,0.5177331079337517,0.6032032705445569,0.689640957802409,0.7369002390462713,0.721492887534595,0.7280857468685789,0.7279963002083571,0.7056833456186686,0.7079993072476312,0.6974731201546784,0.6698745312151579,0.6541956307902044,0.673556529460438,0.697883186183337,0.7006072481613301,0.700614450128352,0.7003278136598403,0.6946260619009379,0.6888209709321018,0.6863905595302382,0.6756993156219198,0.6523985033642841,0.6322221684344866,0.6438327554031595,0.6809743899361906,0.704768073473639,0.7369784842864939,0.7587604669329442,0.7511106761963571,0.7119996840719123,0.6837666731505829,0.6920591531560787,0.7138545312478473,0.721772169338948,0.7324350242042421,0.7389416833364726,0.7528219978577957,0.7479520294767015,0.746519931574362,0.7526206325466449,0.7434335642382937,0.7368210910329032,0.7098600402613859,0.7148795241349613,0.7361151845404972,0.762422765421406,0.7628912965912715,0.7634780204495264,0.7789486543213606,0.7826240494367893,0.790313742735633,0.8249715900421777,0.791524551191275,0.7175063492750022,0.6325285103952656,0.5526205947081568,0.48326494155566935,0.5262344336658231,0.6068612003642697,0.6880150294033271,0.7569961802051488,0.7792065823044048,0.760806211351422,0.7335655043303009,0.6996902229103725,0.6933649798130508,0.7108717213524309,0.7320394595486699,0.7399071422316779,0.748565266988175,0.7629198351274205,0.7756760603781518,0.7670553459139879,0.7755166001013165,0.8082050924435211,0.8372558934195082,0.8609578349651115,0.8812583741773674,0.9124726323115409,0.947357679408358,0.9812588402288831,0.9999999999999998,0.9998791597403474,0.9877225206212417,0.9869306442025685,0.9859533818147972,0.9210310095930299,0.8422910599610443,0.7544054376609444,0.6667396315850838,0.5931918595410883,0.6032834606722497,0.689466162436754,0.769745304578328,0.8447814197601893,0.8638503767802435,0.8172024434733289,0.760655548949013,0.7020900381143684,0.6421153089829132,0.5958191934708357,0.5842225530690202,0.6110566187053081,0.6448061470892832,0.6727181191606102,0.6939008364636277,0.7065468695033583,0.7179080003496396,0.7202782919903121,0.7184129281704295,0.7040512013638971,0.7010165700930584,0.6993974612362888,0.6887028699472759,0.6826428948649512,0.6669824480374043,0.6415350859722604,0.6509843880783752,0.6675077030472074,0.6913854207025174,0.7188431721007034,0.7522251903403003,0.7798466617082063,0.737680781084417,0.655653438411312,0.5759661578313422,0.48815221743802595,0.39876052567047915,0.35739249297141207,0.4303406325081103,0.513035808460087,0.5965528854187043,0.6775050714924393,0.7452725151262987,0.7542899367837548,0.7399989350977212,0.7096238555894423,0.6735185134735764,0.6792716585322622,0.7082552958380266,0.7280686143154489,0.7290704792904965,0.7314538311063237,0.746984090158622,0.7594188006957616,0.7606839150590907,PM
0.8106738609394015,0.8094545277999945,0.8026830254126462,0.8019697266229358,0.8079085772708798,0.8014352334391202,0.7609693419465429,0.7525162223028894,0.8049546031720247,0.8785329358813683,0.9012738803655744,0.8831468829500388,0.8030832335946703,0.6723307713445168,0.5342452723717481,0.397098422702169,0.2607279470391006,0.12857671102464563,0.06713714820345196,0.14506837833131447,0.26740149936794344,0.4071086501245471,0.5597591625682288,0.6986066584166859,0.8135278950656368,0.7739416756602546,0.664467782511482,0.5763141845851854,0.5328190707144143,0.5086452121969476,0.5267971444228179,0.587566840900231,0.659834001428778,0.740687247483355,0.7903545926299036,0.8099092715199672,0.8136652722942155,0.8131609161670239,0.7896612622271761,0.7284194422833474,0.677991107001715,0.7014866394000703,0.7679039148982931,0.8358631280834996,0.8694316777258799,0.8678158115881707,0.7836771194621992,0.6534806698736331,0.5141182033145228,0.3729977593962728,0.21859128719946463,0.08100201259178386,0.0,0.0639018996360412,0.2081673705587681,0.3504123717118688,0.4986609954925778,0.6456284309642304,0.7815969275078039,0.8560837085423043,0.7812273630847537,0.694191058285067,0.632063121740309,0.596314071233901,0.598961217639066,0.6445841462091426,0.7177118670925653,0.7944396294979681,0.8436861276902077,0.8496167774145174,0.8379473753520701,0.8084827578473912,0.7916299215938323,0.7676443949292722,0.7119352898530931,0.6708596969380567,0.7006326284851219,0.7741049716509392,0.8210239829734616,0.8447893681498377,0.8241407993684522,0.7107496251711156,0.5748870656260952,0.4403246753483887,0.302618880643728,0.16379987636748128,0.050652252989744184,0.08459296927140336,0.21922388522695702,0.3676354945410889,0.5144726150376626,0.6573281229868728,0.7946156793879031,0.8353295905702058,0.7392942688730972,0.6483487984411171,0.582203509803342,0.5428925233473243,0.5463942058156621,0.5838778700398666,0.6565456418427815,0.7364102790790978,0.8008384053790998,0.8029031515686165,0.7812280573997334,0.769780865671422,0.7732610250722258,0.7686695481794485,0.7145971978598165,0.6875569101282002,0.7275870208583779,0.8109328890383813,0.8544565222906821,0.8765987471760277,0.8388549847058466,0.7172805914691613,0.5690294512624625,0.42819841749750376,0.29174706575658105,0.16263126526795535,0.10556270965205572,0.19925173985936562,0.3468840366675088,0.4908864601099432,0.6365193204831652,0.7774124568224425,0.879263747893134,0.8115471477363676,0.7216032753692248,0.646724994197847,0.6063668822776642,0.6085764802721583,0.653734986255734,0.6897168556938853,0.7644643340618682,0.8597132975962949,0.9675428155813459,1.0,0.9026358238712642,0.7799670881243519,0.6661459824633855,0.5295688762197641,0.42957666271773887,0.5193670113941735,0.6555144205099466,0.786825902096103,0.9201249124355488,0.977455997587747,0.950464126179233,0.921545842273666,0.885056334225697,0.8141791450471665,0.7549947997452922,0.784064887988623,0.8339060346303482,0.8429724884647198,0.8293346620321951,0.8426038209765734,0.8615886720930122,0.8630809768059509,0.821775753283013,0.7469893068879299,0.6663307725342533,0.6075689046774184,0.6202217367944245,0.6715079468531693,0.7467139405578438,0.8613084432838298,0.9579549709061785,0.964681577690492,0.8674437727004047,0.7333575000627088,0.5789485086188657,0.42838377355197554,0.4027855241285998,0.5278562560330813,0.6641532391577201,0.7991594557851207,0.9228000786547481,0.9549408521443365,0.9106767464427956,0.8869149990422853,0.8566903237826002,0.7900469686719189,0.7496604087261529,0.7996344173940964,0.8508371016330196,0.8670401302813802,0.8821649176062349,0.9058564285947921,0.9196344566153116,0.9095510153524615,0.86470275889481,0.7836468084473536,0.7131205597210712,0.657360065736639,0.6628252900733926,0.7204243039755647,0.7996372044822064,0.8997626750552525,0.9930946939223784,0.9757020510698324,0.8581466502191089,0.7260584824296639,0.6144870949507362,0.4742652155333875,0.4385116623696841,0.5604713033466435,0.6973574545754362,0.8427078987069616,0.9655395454663456,0.9708996301032804,0.940227132716152,0.9123311105503689,0.870982985691148,0.8006262492178955,0.7764974362610784,0.8245710827730619,0.8724040326083284,0.8777543256205149,0.8882800866071681,0.8838543718822374,0.8578310887010212,0.8276505485429393,0.7652567382638353,0.6859015746093111,0.6127874493688386,0.572926456984959,0.5903966081918925,0.6409800287726282,0.7271112115338347,0.8512769821234611,0.9382498628908889,0.9133524988809727,0.7971009980799661,0.6462524913679202,0.4929228386934481,0.4276640379036998,0.5403997451619817,0.6771410417544388,0.8134658321724455,0.9259886728517,0.9644792628149728,0.9724383387967173,0.9698641646734494,0.9223806764899773,0.8489798369970978,0.8159522519545273,0.8624328098240657,0.8931578054322769,0.8808781744739265,0.8786341921946588,0.8800678865384475,0.8768039226005153,0.8878852234787056,PM
