0,1,2,3,4,5,6,7,8,9,10,11,12,13,14,15,16,17,18,19,20,21,22,23,24,25,26,27,28,29,30,31,32,33,34,35,36,37,38,39,40,41,42,43,44,45,46,47,48,49,50,51,52,53,54,55,56,57,58,59,60,61,62,63,64,65,66,67,68,69,70,71,72,73,74,75,76,77,78,79,80,81,82,83,84,85,86,87,88,89,90,91,92,93,94,95,96,97,98,99,100,101,102,103,104,105,106,107,108,109,110,111,112,113,114,115,116,117,118,119,120,121,122,123,124,125,126,127,128,129,130,131,132,133,134,135,136,137,138,139,140,141,142,143,144,145,146,147,148,149,150,151,152,153,154,155,156,157,158,159,160,161,162,163,164,165,166,167,168,169,170,171,172,173,174,175,176,177,178,179,180,181,182,183,184,185,186,187,188,189,190,191,192,193,194,195,196,197,198,199,200,201,202,203,204,205,206,207,208,209,210,211,212,213,214,215,216,217,218,219,220,221,222,223,224,225,226,227,228,229,230,231,232,233,234,235,236,237,238,239,240,241,242,243,244,245,246,247,248,249,250,251,252,253,254,Target
0.8388158897637557,0.825697344978084,0.7936433779211478,0.7472419696347516,0.7095968967092963,0.7250658976542266,0.7710544402288437,0.8174421825952287,0.8524519150107521,0.8695071387748048,0.8916479756821436,0.8856881771303724,0.8392101815409532,0.7805562900090572,0.6972759073964074,0.602130242918576,0.5027479585274037,0.5027283902476427,0.5999090527612523,0.6966954593295649,0.7964393551580449,0.8787909477246274,0.8853135104636867,0.8697850141574424,0.8454661271875741,0.7811529444094789,0.7742875967687011,0.8136104544494864,0.8483614203082033,0.8408618709547604,0.849288590560229,0.8539044851964095,0.8676244538132438,0.9051693408346548,0.9120763843730211,0.8974428620180295,0.8615569802424174,0.8219691537230063,0.7977845446191865,0.8356667955884294,0.8924128018291075,0.9437105180524885,0.9742357600266407,0.9942303092471267,0.9931796711637213,0.9962537858899607,0.9699706073280361,0.9071510626915484,0.826454366886012,0.7322970410978054,0.6339382149145434,0.5360364308662204,0.48660003827736964,0.565481214457318,0.6700044611119418,0.7661067288596655,0.8650821990131343,0.9448399519150759,0.9744698906827003,0.9477502173134347,0.8864301840997142,0.8115327591601502,0.7326657905381395,0.677333271828797,0.7118868154090323,0.753797001016445,0.7800195319246257,0.7807189428364356,0.7893587717214772,0.7795931564985088,0.7652609037587659,0.7798988316882112,0.7636335451004921,0.7611443077139206,0.8291837229929608,0.876283390345564,0.8634554805257617,0.9016888201594202,0.9484281854014693,0.9606133316902172,0.8976131188350818,0.8717530887258371,0.8806976333266097,0.873006893856991,0.8305672697652235,0.7690245891945164,0.6811712324452588,0.5847915361191169,0.4889211446495747,0.3900137335450933,0.38655822161586784,0.48357379080378204,0.5835137148925715,0.6815565938644486,0.7772601811162085,0.8595562016891185,0.8624281591991443,0.8223507007055535,0.7712965480751592,0.718587557607058,0.7358520586187256,0.7783472699728062,0.8066878009633791,0.8166205518569158,0.8134148724231627,0.8237170271455085,0.8364735212655388,0.82940344376935,0.8212669717456385,0.8153303142136645,0.7983109899625316,0.8301300081132521,0.8865203271795032,0.9353499457456913,0.9711483662559683,0.9917574644349412,1.0000000000000002,0.9958776732167245,0.9596329768380818,0.9036286508983256,0.9108433550540667,0.9380327094048073,0.948608100001531,0.9335176226099715,0.8989017366511882,0.8484844943400918,0.7976611231383866,0.7462836738674443,0.7381949144791651,0.7572587060992888,0.7745545207942162,0.7767131410046944,0.7768391851567482,0.7670985692349512,0.7597070259664391,0.759529703613125,0.7414432244955427,0.7186353412477755,0.672097127449913,0.6487223329472196,0.6849002909392479,0.7401983243734003,0.79134249353633,0.7888367644098937,0.7036515538717738,0.605685213991541,0.5089039678722893,0.40572363187236915,0.2987163661246315,0.1932906420837177,0.09955399226665707,0.03973855129326176,0.08794821184275525,0.1783567571972322,0.2584506530695163,0.361218205864712,0.46446828687247055,0.5611981833384132,0.658929138738434,0.743746492423939,0.8051372850409979,0.824914749080228,0.8160866600043344,0.8333065483168831,0.8805147869701011,0.865233695623121,0.8201190845861615,0.7839054541619179,0.7266351472793875,0.6915320497698871,0.7013445743537223,0.7134618370990389,0.7143983257287878,0.7280201391335026,0.7210646366914906,0.729219196491109,0.7172889004360374,0.6762978470683978,0.630351416289167,0.6206832576723345,0.681874240659561,0.7628681155628334,0.8438530779730742,0.9019138110135703,0.90845536638824,0.828577916423711,0.7297155935705841,0.6322457242465627,0.5299457373518142,0.42869652547236003,0.3321418348548879,0.23913446799028026,0.17118111543127257,0.17236318526427685,0.2566377838709313,0.3579623627214843,0.45585082107702735,0.5624479283145234,0.6687456628628057,0.7651511906952579,0.8518978221761586,0.9123966578462055,0.9304427291517501,0.9249693332063249,0.9209453619818568,0.903509486620852,0.8563353040503296,0.7999151830446956,0.7484145710905319,0.7347471405976391,0.7737665754758598,0.8115517288918273,0.8422319602930861,0.8504403212123719,0.8217470506196809,0.8007412908396245,0.7992240892736036,0.7881570516867622,0.7844361329681389,0.753485344715102,0.7179490746145352,0.7169097981020764,0.7690224738691269,0.801482416533587,0.7978626349238385,0.7388573313057212,0.6419413055979486,0.5459918224045353,0.44466964554738087,0.3477200071359676,0.24626329853099183,0.14850244644513166,0.049075836192272515,0.0,0.06866548808739092,0.16500768416245193,0.2676681781553276,0.3667013569984914,0.46749061603638276,0.5712495479960464,0.653720430532805,0.7336164334841231,0.7928731804406375,0.8315747005052032,0.825530201835454,0.8090497237469292,0.7763241568546231,0.7258284449832055,0.6767868858472335,0.6358128640728158,0.662505112681375,0.7078995948608375,0.7515471654045778,0.770789340899553,0.7783415439404056,PM
0.6942197707005793,0.6888442647480337,0.6591239257664983,0.6687874128172666,0.7453915495864138,0.821299354284144,0.8531513768035444,0.875152312781716,0.862328149214548,0.8734890597251947,0.8483411457864145,0.7837341436274818,0.6696481670282375,0.5338797517273246,0.3911710125960277,0.24980633047055978,0.17470501000246763,0.2759167234941895,0.41842831469731756,0.5611370486562337,0.6965572713164776,0.7943508841081788,0.8086008630536514,0.8111234562864764,0.7882947343525393,0.7136810022568034,0.6271197977802205,0.6102083312907238,0.661906899509161,0.7063117931966492,0.7169979868773955,0.7024816678263814,0.6807971949313081,0.7036696841609782,0.7809659168439227,0.8437362902418304,0.8486654519869985,0.8517539986208904,0.8582846114891698,0.855378514705194,0.8205233307926472,0.7312476410974988,0.6047470554852481,0.4666214722445674,0.32527672725225854,0.1957926791781528,0.19818776458088427,0.3356646123454263,0.4727719778232431,0.6153165189334855,0.7493867335753399,0.807824680448701,0.7893294956002377,0.775289998076071,0.7440927578776884,0.6627168917283983,0.5758951875455862,0.5474374881580015,0.6036076634445955,0.6409432672827275,0.6227614947712024,0.5728486817737517,0.5329473022467774,0.5000902080890004,0.5291089467274093,0.6085819625066176,0.6814064493605732,0.7227235206213538,0.7546008735731369,0.7814250104602758,0.8039646624467713,0.7986966441312826,0.7229898348872861,0.6090132960117143,0.47069777725528716,0.32815967593070683,0.19905121990652708,0.20106575458492104,0.338537929080895,0.47858880417777705,0.6213046906103066,0.7602093637073515,0.8756541322421576,0.9236173041069442,0.9574837006734,1.0,0.9729016307025766,0.8927809482205253,0.8099231528644588,0.7979082321171633,0.8010767614692997,0.740909081285996,0.6629699316194344,0.5724699693054474,0.45491123062352123,0.35260809436615137,0.2736415931354972,0.2888229468956176,0.37118869483504735,0.4667072491221167,0.5779275836016771,0.6782139261386777,0.7559526833352965,0.8266303418679213,0.8833237660350362,0.9208231129469553,0.9699523333726132,0.9936080138434749,0.9515033723587436,0.8559374660458454,0.7248354824172636,0.5884386189884796,0.4458182217478579,0.3214286811091256,0.36761543687938314,0.49905052785225434,0.6390610089016757,0.7798730596237791,0.8956134886235958,0.915560719807071,0.8841615921225436,0.8437645031709398,0.7934382842253642,0.7078397210297664,0.6209565403965507,0.5861373856783527,0.6530940512794752,0.7410971156751955,0.7852856363659093,0.8212216696706385,0.8058437540325909,0.6881567788829939,0.5711562559450858,0.4470478375167124,0.31483060468203616,0.19113191789763428,0.14771766150329801,0.237393858303506,0.3662832923185593,0.5048804543649399,0.6444820050442828,0.7801785522895641,0.8869719069309729,0.9029086906101176,0.86746033039568,0.8258519258342965,0.7707320120476426,0.7011240711932794,0.621830813123212,0.524080824615687,0.40884627200736645,0.3111409640679974,0.23039287638236017,0.18105524001430862,0.20557285293527272,0.2873600871031785,0.39683582919324545,0.5064745020893588,0.5999768502008305,0.6769884713726086,0.7171339248421034,0.6772821569309446,0.7182858160424499,0.8020740401352127,0.8842349686673208,0.8982708577171348,0.8674809827143966,0.812622398410737,0.6898995736706457,0.5474596910129947,0.4049878586890294,0.2697592490432288,0.13906527799423962,0.016369358002802592,0.0,0.09702691588644896,0.22544069518988463,0.3661256369958985,0.5068408717411654,0.6388340199114402,0.7348567674691946,0.7247840551108937,0.6958446921951151,0.6723223441479265,0.6463024846023946,0.5926865518399618,0.5072808512850875,0.43451359981931725,0.42704862949042166,0.45446428325746036,0.4954351436665938,0.5371874045041136,0.5525054401720331,0.5037486172033567,0.4305876616740347,0.45387259525213075,0.5325287704253299,0.6165410164393661,0.6813382313232061,0.7110649995836615,0.7147194138851183,0.6160178744544487,0.5011776334944624,0.3635255720775623,0.22994015475913798,0.1010180379415142,0.008037676252421022,0.051526425994665725,0.1650262550439323,0.3001783083959739,0.4398107974065133,0.5794295528406344,0.7110369676469532,0.7792114751764649,0.773311932759758,0.7724572206840112,0.7754320837222091,0.772478564008471,0.715975862927996,0.6340211951015373,0.5833811845109413,0.60356252663381,0.6359551843662201,0.6375943571447902,0.6161895308735685,0.5499108074755821,0.48737972684924413,0.5270745001720085,0.6092724871204642,0.691878027737284,0.730338439090652,0.7259364767666394,0.6479516636111744,0.5108347872783039,0.36807267243472674,0.22837734081558114,0.096992224037598,0.02397326097482022,0.09065019666211249,0.19383521477400212,0.3076056530834199,0.4476697067890374,0.5843062829636692,0.711959709535841,0.7741825049410518,0.7768664782112205,0.7726725102984937,0.7899271225106035,0.7558580065158385,0.6925386616990088,0.6045843788155647,0.5705966276049006,0.5900820490304288,0.604450771700968,0.6083395310149475,PM
0.6417343597253307,0.6071127611428253,0.5410177008103603,0.44933866280137846,0.39965896280926194,0.48619368797861395,0.5877958778417327,0.6932604174483978,0.7876332236006764,0.799724618387397,0.7572761122359963,0.7502068489400664,0.7198305836648251,0.6699644147988433,0.6627654735579462,0.7108897005973651,0.758659895328077,0.7818555383682855,0.7824008966836777,0.8095379908420874,0.8163703203973001,0.8396149147255534,0.8308412476058697,0.7836230910467361,0.7358880248331869,0.6778052480582983,0.6155356836441797,0.5496654033341317,0.48484171034210255,0.4728439425822779,0.5202627281924166,0.5752823497361306,0.6248086647756137,0.6725582640565004,0.7090355681632914,0.7024014655749553,0.6703070116312129,0.6858019384313836,0.6478704359439649,0.5537916470180286,0.4895230172083973,0.5549666075148403,0.6531265945689595,0.7409655593110303,0.7472768735193458,0.6852717549942675,0.6447036609944929,0.5955840848031764,0.5433961888586436,0.5108580240433136,0.540680394427479,0.6026861297564359,0.6510536909797227,0.6555244986707713,0.6644115478691843,0.6667488923809015,0.6705632338540857,0.6489602456274535,0.6200777226397214,0.577556738304059,0.524124850275997,0.46405693151785443,0.40835364334298707,0.40230544358747866,0.45605895495148796,0.5091977122570632,0.5547712490739161,0.598148673818151,0.6105822510886532,0.6360447867779391,0.6817696084662124,0.7018810563056801,0.7149450661543109,0.6426350380206831,0.5440752158000184,0.4380068035966611,0.4163679687412476,0.513912504972055,0.6124837575677213,0.6871635401834115,0.6775158800941663,0.6788136805723795,0.6915198067441881,0.6463796173916363,0.5948317790126063,0.5813157790082897,0.6332543119784402,0.6792217528774123,0.7203274795300432,0.7593194279205828,0.8151753395247996,0.8807277911906992,0.9356503400517113,0.9883074327870245,1.0000000000000002,0.9691184238095751,0.9204717951053738,0.8593676464439575,0.7955125754465111,0.7282863150718508,0.6609043547032225,0.6053893487629181,0.5861456858912295,0.6090727331777817,0.6296356065593829,0.6394426219454645,0.6531327151333388,0.6679482000454156,0.6323353522751007,0.5724254604450605,0.5111905288928005,0.571140139664198,0.6697667408693395,0.7679666646855179,0.8599201240130652,0.8815327090907672,0.8256673827219563,0.7358774214923975,0.6337508180702496,0.5232895650816454,0.41251598389926936,0.3025801363038798,0.21467317814579068,0.1262195896706355,0.049566066949351395,0.07613052230992934,0.1666811948186464,0.21792808184004042,0.275393956526784,0.38214170909759804,0.4687469714802879,0.5189642544637623,0.5882038672986878,0.622975086653611,0.6024906988959093,0.5907960862548951,0.5693418339239382,0.5530745822550809,0.5447700718170643,0.5749884883611467,0.6332999135737964,0.6977073016731892,0.7662937442890734,0.83297243257596,0.8910726859442775,0.9356089302040209,0.9441622692952356,0.8996003573516498,0.8379121831835803,0.770723909208477,0.7171884991527666,0.6750171211291709,0.637249272510519,0.5900499577757776,0.5383763334964511,0.5185611356796735,0.5432236106349835,0.6001435170588618,0.6396325593520935,0.6170540435509511,0.6051551459234121,0.5555714732504236,0.45759377191301254,0.3528973793675647,0.2526112646699705,0.14505995926369164,0.04958830450355656,0.02669184015867132,0.11786871555091527,0.21822116979603323,0.3250236231210992,0.4262890570888678,0.5279852680671568,0.6098544525525205,0.6251237030664434,0.5867263316344553,0.558890440929791,0.5320917673547136,0.48962557953411934,0.4406954211483638,0.3838178773710388,0.3496533477312529,0.36649694006645883,0.4252969345555855,0.48240126351447343,0.5351383925807627,0.5665176116573869,0.6048292011095857,0.6268067659533434,0.621160481034613,0.6095886851692749,0.6115451514941299,0.594947331216858,0.5297036389938425,0.4763203004269354,0.457333272444034,0.4899675151488634,0.537350010392162,0.5899708504386532,0.6281985350542227,0.608192941838569,0.5128503248604053,0.41002740911572855,0.3062680636013517,0.20310232533748507,0.10364684069510566,0.079322468044416,0.1614089491810149,0.2665426377994582,0.3676711344591095,0.47269618314702,0.5559276059718121,0.6051994992296315,0.6336511118871939,0.6601500376998362,0.634534298644527,0.5832907118494017,0.5293918338232062,0.4763555341397063,0.43145802043650305,0.4184073331526681,0.45400697717671235,0.5232618892780401,0.5896852065946383,0.6558078199053907,0.7063795111543685,0.7553496872123893,0.7911631198152052,0.7779018995072142,0.7604428712101738,0.7331191622595508,0.7329377447411074,0.7044766723724087,0.6480902313848438,0.6136736108204575,0.6048328909951122,0.6439689822614116,0.6938905045957029,0.7050183389708755,0.7085026795322003,0.6816438307129402,0.5875649840657948,0.488580733212723,0.3801183513956967,0.2778204085907292,0.17274007275642767,0.06315039761002694,0.0,0.05837191696436439,0.1564860224431328,0.2625505950333038,0.36320184699815994,0.4651285061263153,0.5471420158329943,0.5987800668863412,PM
0.5204516678208071,0.6293333561059122,0.731293119932984,0.8174221091256038,0.8877023394277139,0.8875470933509972,0.836941328966943,0.7859971387528626,0.7938255491619346,0.8454594508533333,0.8762466108546674,0.8743905114851653,0.877829120219408,0.8644886207464553,0.865632315852185,0.8870352593654003,0.9033695619122453,0.9155101962016436,0.902020416180989,0.8829672161756945,0.8660278533460066,0.8376955498984571,0.807744052878514,0.8130005609391504,0.8624162761857526,0.9015617312205122,0.9167951528912148,0.9221485942972727,0.934481289245022,0.9349420628859053,0.9173882753367706,0.8558833432820516,0.773279266546246,0.6748165848412495,0.5694054737183549,0.46004383886649425,0.4686651017965935,0.577252471832328,0.6590867325966574,0.7608841523898673,0.8596013055926273,0.9231725789072183,0.9072755238328631,0.8570398845644203,0.797235070640939,0.7682848195224112,0.8095593886231671,0.8565742212115253,0.8765197270335312,0.8690881956025112,0.8629607377720006,0.8629203843400375,0.8662156921931934,0.8821870736045874,0.8929167770149342,0.8799727203571766,0.8653860380544374,0.8623881454462112,0.8469400713719621,0.8112716097412629,0.8277724714448325,0.8826182906351319,0.9296638105220767,0.9536485952716833,0.9691967489888023,0.9775747911157868,0.9963589277268565,1.0,0.9516161530776905,0.8775810318581323,0.7864222028730095,0.6807304676000117,0.5738096363309677,0.4647010494094834,0.44569632933501646,0.5510235804012522,0.6563571074244936,0.7714127908030552,0.866373220801115,0.9396675351612442,0.9400818532723054,0.8875216102910777,0.8270939250954545,0.8014222276071319,0.8379160821734959,0.88447169652094,0.8953297614538678,0.8901212291863323,0.8693171744308161,0.8629598902812545,0.8630194824934079,0.8703552545618094,0.8748908761449052,0.8736286499615393,0.8627839672401132,0.8442002497747838,0.8218220660239433,0.7866766255464133,0.8138936859506716,0.8679090454088043,0.9117208662430447,0.9461871978121428,0.9483647072161259,0.9451166877463422,0.9354903934550771,0.9304563847065714,0.8826000625696846,0.7980311211809012,0.7072689581116194,0.5998309714675449,0.5017015771781592,0.5338938185969302,0.637235643255492,0.7190910683772453,0.8033668565818708,0.8784314429169737,0.8562460765438242,0.7793036432564739,0.6859494896334022,0.587641956357674,0.46981392039213477,0.36967074705433545,0.29974367717757744,0.19618014361102887,0.08596540985465673,0.004184986526658552,0.04407745201461877,0.14580788486129626,0.25229706082516845,0.33695342737714373,0.3860240206907388,0.4932771917538208,0.609467918679357,0.6863045588124335,0.7698611886175368,0.8515416128881621,0.8801997723002088,0.8876429590202402,0.8904499685029297,0.8823743254327536,0.8681602675012359,0.8227188275132025,0.7720267049923457,0.7292927888921539,0.7284646568978457,0.7657113203012518,0.7851282309905692,0.8008665648093904,0.8130855584034835,0.8194448200203754,0.8192513243445694,0.8116280942816649,0.8086677830545255,0.8079689980085631,0.8266420640130487,0.8324666022643465,0.7948389931781539,0.7542912474841574,0.7355042799048666,0.7744287509194572,0.8375823117517474,0.8871597887098459,0.8421456373501259,0.7602015023899886,0.6530628754164507,0.5374677437470199,0.4322474604500748,0.3155485511406608,0.2078566324259743,0.1037264176594972,0.0933559494823486,0.18485647122268922,0.2914949027400451,0.39825264466516774,0.5105128900001255,0.6175438945262806,0.7261230646692565,0.8007611877776002,0.8801271778264028,0.9394203722478291,0.9352084578386219,0.9272659910289343,0.9139219113433401,0.8930358622697878,0.8490795652752268,0.7963362245173036,0.7533643237293717,0.7632207806267886,0.8021812234589851,0.818897547699502,0.8217758837166458,0.8351373859810249,0.8272583032155008,0.8196185279177008,0.8195043713512824,0.8195043713512824,0.8195043713512824,0.819058174503414,0.7986754916333352,0.7456155961350621,0.7144431896170453,0.732481375474197,0.7915701918592313,0.8438743151861954,0.8076318276710448,0.7194101691241874,0.6141647717113377,0.503309512006131,0.38471183274938703,0.2659869800261889,0.1473523167514168,0.03875211680589441,0.005130088522726783,0.0843899479165171,0.1916380965157014,0.29983202724780655,0.40479263815011235,0.5188681129196118,0.623911500728056,0.7322363335220312,0.817006215750919,0.8818322301177299,0.8913532455204707,0.8802716488615561,0.8736096898418029,0.861153409302291,0.8210323304066627,0.7698494623146783,0.7364711868134921,0.7552264806446773,0.7893361157759022,0.8153662132634225,0.8341092313732852,0.8530959882835671,0.8555282535741457,0.8459178426810041,0.8233479518305278,0.819519671249644,0.8195043713512824,0.8194905574136566,0.8145477366213001,0.7735436778571798,0.7294052655984493,0.72407385004855,0.7624690487382426,0.8160767287014603,0.8329802754273015,0.7535815179193439,0.6544641288473345,0.5445478906502252,0.4268061587969889,0.3206415304709851,0.2066183597852116,0.0922130153507763,0.0,PM
0.7771012546170057,0.813499669319889,0.8267998035668973,0.8382970005752011,0.7855681990405659,0.7285664244699919,0.6982675685115658,0.7330093622455776,0.7832785911296227,0.8332522837680951,0.8426457915215266,0.8324406524239443,0.7934748246360019,0.7042904222931208,0.5959580454237954,0.5454402417022806,0.6482473231763457,0.7849654968006736,0.9189619145894721,1.0,0.9312260790453522,0.8733394716915841,0.8661754571008835,0.797851145984457,0.7265281561889028,0.622763879343414,0.5282267960734339,0.5669074116336783,0.6885792002501772,0.7518560219039854,0.7890199139534695,0.8183851629302219,0.7889586360631422,0.7957827893161715,0.7932552431100746,0.7520215215657315,0.7481001504264158,0.719707119285014,0.735634344067118,0.7713267311549545,0.7818344402688777,0.7705110559957644,0.7332385887537152,0.7006701303108214,0.7000391743241452,0.7101798369648975,0.7188124066458781,0.7317571015897246,0.6958764464242857,0.6146428229185328,0.5462614347402548,0.6233314325930936,0.7555828432438694,0.8888253517497517,0.9739318687137759,0.9193913875493429,0.8291718498413418,0.7990502892112823,0.7470003852709919,0.6686837274053818,0.5522763566407405,0.45912647567040077,0.49580135229520295,0.6001511417931749,0.6629326740446069,0.7166782133059622,0.7362407517056111,0.7603667903472195,0.770915764436868,0.7942147156552513,0.8247302272578225,0.8450381992444287,0.8792823096412228,0.9263019288977317,0.9702134838941081,0.9927994753153833,0.9676059283503582,0.8950592237627548,0.8388873935287933,0.7809745965003567,0.7139206092202546,0.6175413460778145,0.5389273027002464,0.5477407793931603,0.5766896217657305,0.5558948607838397,0.46967874272565213,0.37081466734468904,0.3538081178916892,0.4839093578287077,0.6352340976243158,0.7659095008336467,0.7831741482260584,0.7057525404559044,0.6693458720102692,0.6287027918763419,0.5392979682729275,0.4267051105090429,0.38990568179358,0.4858437059942191,0.5752825226924365,0.6398998302091958,0.6810599465141038,0.696216078274281,0.695982966999849,0.6815023045419362,0.7033716455699661,0.7170891378056692,0.7468197943076489,0.7770908393867719,0.7993646810469719,0.752359851999675,0.6862608151136822,0.6276859372719192,0.5899612606067461,0.607998837957668,0.6440589139632205,0.6716624167249461,0.6967508302541932,0.660006174276925,0.619759428433837,0.6030497342396464,0.5679499965363926,0.512772245455253,0.467434884355602,0.33973868015014697,0.18938022504418317,0.08344511117345865,0.07445569220126158,0.15558935054869583,0.3034117505790688,0.4448693723178825,0.5069037433358661,0.49605293920147187,0.5300238099924841,0.5938179974346824,0.6662267754593301,0.711745295925752,0.6909803782189843,0.6586051617490325,0.6291316903791682,0.6117002066432029,0.5941727247670516,0.5963062615955326,0.6029946056492745,0.6150910849333293,0.5790230375822634,0.5109609043115277,0.41077277227856346,0.3099649787306791,0.2752358499249441,0.3392583938835769,0.43511681815491476,0.5388542013694093,0.6022035472479104,0.6174178198641269,0.5839200583582089,0.4660452934874093,0.32488019031604365,0.19123579869605578,0.055201929973974995,0.0,0.09815258050364761,0.22470363200406362,0.32391328193331814,0.4202850602910151,0.4757793122906846,0.4624889328352526,0.427753837803202,0.431304068439724,0.5333025268835243,0.6396891734192591,0.7175470051973596,0.7718592747148469,0.8313215820583082,0.892163188096033,0.9071356408356497,0.8636478319167518,0.8230523601028525,0.7796161025814841,0.7530532743433502,0.7310770531653814,0.6961872446972697,0.6815806686549668,0.6600165803953955,0.648844763753758,0.6076055768447142,0.5421298168405819,0.4320078164333503,0.36542562054925654,0.38007243824920733,0.4810133440868287,0.5935043813051615,0.6812572700624475,0.724196590305398,0.7475594060681203,0.655486919846477,0.5220607588445696,0.37911381806935385,0.2520351425182876,0.21523374886784508,0.3227554852833041,0.45035042666597436,0.5394125692046288,0.6254756676349342,0.6445813788875712,0.6254844562621527,0.6314690838041832,0.6246714319287627,0.618987265118299,0.6554251896331866,0.6825702467898669,0.6977357794234011,0.6768073239763748,0.6402459585373372,0.6361135038755372,0.6546302103728023,0.6830590534029866,0.6894391228879169,0.7038888390867859,0.7056311698402729,0.7286980241285175,0.6937352043799572,0.667412162646833,0.5790840069090808,0.4888957945338466,0.4130987187675488,0.39843759583578775,0.48629641147810476,0.5960018687375297,0.6870734097085052,0.7248059877502357,0.7680437701638794,0.7798324996644861,0.6592332687184079,0.5232854376261931,0.3825250803766296,0.25254373137549546,0.20618723180543075,0.3049530603809796,0.4372832098062269,0.5534877278565316,0.6541248246882798,0.7313299666250899,0.7476185464032423,0.7619173064724487,0.70926397227527,0.6538465902163009,0.6169897390980776,0.630456794280319,0.6675107692918925,0.7306621952434127,0.7460492624565638,0.7167124090927968,0.6806569218672713,PM
0.4603680164808224,0.46555815416777113,0.466356337381046,0.4833588867844676,0.5329503276428622,0.6183735129598866,0.7146302324436662,0.8118341479961928,0.9096441950757805,0.9796853605655942,0.9442180661499533,0.8448456107798625,0.7426519916346104,0.6615956551766455,0.7090885354074103,0.7003910877626347,0.6085068871169215,0.5161704549071326,0.5049687631710285,0.5079941799640366,0.491893553827901,0.4524823451388502,0.40092785858355473,0.3424577380509337,0.35654793224042347,0.41573111090801174,0.4668772803855292,0.48075136884075587,0.4739445720268747,0.48265934642229613,0.47360669696565116,0.46176218937127844,0.4487385327808924,0.4359761635588191,0.3936275942655296,0.36931165047534176,0.40372797164794605,0.4497206903922679,0.4836679744426773,0.5003484265599671,0.49067762926304637,0.4911986986529948,0.5352481059398788,0.5943668598389555,0.6804437466123372,0.776378440831226,0.8769059910022343,0.9695274938967202,0.9896317437220357,0.9072976626816613,0.7992034924652542,0.696130309072319,0.6095490478052983,0.6679561584968421,0.7524093879928144,0.7540813787437806,0.6663575113293523,0.5572242698974526,0.5044222465501726,0.5005396828478434,0.4813208618529874,0.4394966044299875,0.37960531372441464,0.32800154324165964,0.3460881186562563,0.4134852768699915,0.4592767090055778,0.4790990183455972,0.4750737119074788,0.4682798821000951,0.4810116341949624,0.4833702551335546,0.4859583319818368,0.4899656209887664,0.4719596456892674,0.44757817826451163,0.44618529621502967,0.47796445123372955,0.49008664153695447,0.4940912927077137,0.5107631400099564,0.5109808928127131,0.5250396764081877,0.5661848809904471,0.6393245376515924,0.730615906307682,0.8345129994448919,0.9311377357013866,1.0,0.9586918466596002,0.8589392384125154,0.7483929858782186,0.698635105122841,0.7748048603140698,0.8056622684008543,0.7320949031029675,0.6303268612208912,0.5428359056473577,0.5303865747622583,0.5324539060695281,0.5087425999560478,0.4596441233306554,0.40021372233052865,0.36162640569744475,0.40983332630594393,0.4687657901764415,0.5132731253056866,0.5095673289281359,0.4932796853457857,0.477431398916651,0.44572894157356346,0.421137456194991,0.4079553885420175,0.38757004648976023,0.3511471753834807,0.3160185307669936,0.29965166025983647,0.3351440988955008,0.3769220604273156,0.40788568210903,0.4124294750374773,0.41992483201055775,0.44797634939431363,0.4181564814713439,0.3680764934131546,0.3485368682839751,0.31457685718526074,0.23056398870521244,0.11566446314161993,0.019850452888577674,0.0,0.04487013008372198,0.15409254945007156,0.2659770209444323,0.33060750663034,0.3299926073708117,0.2885896975121338,0.24466661873591455,0.23537604724847228,0.2674226473760011,0.29774992664166433,0.32925836674970954,0.345822609528013,0.3719131197480299,0.4060801355897077,0.4289201660987656,0.43863233723169914,0.45075341283229475,0.42294567174785724,0.36611614340685783,0.3037532426168168,0.2949623161549706,0.35155080394669413,0.4081957168524779,0.46133118153316977,0.4757392006291399,0.46231330673048854,0.4569965864006087,0.5343597352334424,0.6155018457772026,0.561472532877048,0.46303108506545776,0.3923540634051652,0.4031279318250012,0.5076644481423105,0.6129870173313319,0.7211376497051747,0.781622280086113,0.7043700616889788,0.6135755332134369,0.5396244864943252,0.48424463917250327,0.4506941061812846,0.44042216606468365,0.4291732833217221,0.4300596583838847,0.423292608234759,0.3938958551585676,0.3657563712332319,0.3858715384480722,0.41588657368867565,0.42001602704561813,0.41812151363347505,0.4100447498451665,0.4123541476217607,0.41101552746357406,0.4088094587174922,0.4063099312330736,0.409658873637611,0.37893721042574846,0.3207367469837452,0.251146719736846,0.2453865065620917,0.2989380942767106,0.36336596463813065,0.4141862739530495,0.438386652048123,0.43289829482126896,0.4224216691806024,0.4913809950168391,0.5264572997262587,0.44120259234668646,0.355991857386762,0.374283529397061,0.4739903510891814,0.5763320017984266,0.6892070847025207,0.7592514012825222,0.6853304771274082,0.5997891893931668,0.5236418627804071,0.47198675738177887,0.4362656148951931,0.42727770854759717,0.42997812106470334,0.43466999404837336,0.4095093655244768,0.37009293592263637,0.3307001480973546,0.3043798186154594,0.3328232108148037,0.37334371796923405,0.39854082930813606,0.4068082554426171,0.4126486471919133,0.41772191590117824,0.4146053693461482,0.41263691256648505,0.4193178430955675,0.38666917065865203,0.32286853325183396,0.2667682195292236,0.2653776019332619,0.3200417666536466,0.37378876746299383,0.4233608034698788,0.44759165299520554,0.44507712737871463,0.4296009671715435,0.4609369153545213,0.4640151180594061,0.37457867106112586,0.34136312027236615,0.4187176665677579,0.5240610790063474,0.6303291502250761,0.7268847034180528,0.6878186028731093,0.5930612083266018,0.5134810120039948,0.4523589119811211,0.4134041345843853,0.39949954973959967,0.40508424259843334,0.40527448587591985,PM
0.5157830677812214,0.47331174416824284,0.40042943988519397,0.34266375941774907,0.3424280788716043,0.4032400598803876,0.4641023331459708,0.49447129136707746,0.4793840108905729,0.4815669389524735,0.48180657010845884,0.4682067824299416,0.4391661956235966,0.39303626020411553,0.4039057328910105,0.40828583893204673,0.4268184915226403,0.4506418458014454,0.48347570348595603,0.49300384443483525,0.4674155456103941,0.47985504600204276,0.5717541393288363,0.6736274183296254,0.7314832859743707,0.7899320387709619,0.8688177047088192,0.8404780704126189,0.7439891668174465,0.6407592074719926,0.5676059694992164,0.5417361214397283,0.47990674175190806,0.41872474397389237,0.3849053689277606,0.42109347785324225,0.4842349472541243,0.5111730012190749,0.510855397791834,0.48094345865436994,0.5269526925946044,0.6124220204733337,0.5736696672257704,0.4809613611420258,0.4353217479192968,0.42485947628872056,0.44096630672464343,0.45943325407266666,0.46522994620863845,0.4948706383244579,0.4992957293246305,0.5012540898803879,0.47038171821361585,0.5360976243938436,0.641758952970128,0.740915972939372,0.7748951279739211,0.8149499199610397,0.8524920103638864,0.7734824884490497,0.679185726798333,0.5945865567140776,0.5392307859905983,0.5182530538806995,0.47556532175125055,0.3946548960909215,0.3671060679693192,0.40937068941014454,0.4699487402910405,0.4917658839653978,0.46765947226209814,0.4663463042927565,0.45153229032748055,0.4520293926918213,0.441703061255303,0.3976979193330008,0.3908522027923209,0.4331594421656897,0.45992077763819994,0.4918511936224874,0.506256534910202,0.4946763907080278,0.46700743738084505,0.5423298409895909,0.6359861917022398,0.6958043845121566,0.7832012753537199,0.8239238777483071,0.7524213131796627,0.646027359487904,0.5694036374026346,0.5273895550955712,0.5078947464829833,0.44281669212170005,0.37113187496293776,0.36736375917421205,0.41770466495269076,0.46170464522664734,0.4881670270866936,0.49107963866028603,0.4699935953410783,0.45006733970873514,0.41980837831027173,0.3863401088987879,0.38480501088268637,0.3947494828974114,0.446871379132582,0.49358985146412726,0.47593260438725826,0.5086130083061406,0.5602261664319022,0.5894186581882059,0.6670882713767918,0.7675633270457372,0.8578602069565804,0.8741423378991051,0.9290445693167624,1.0,0.9507290711346377,0.8465777466974367,0.7477773811502062,0.6519917672511966,0.5736274555804766,0.533884772229265,0.4798401692882859,0.4080281692120651,0.3541438119388718,0.39252855791740515,0.395876283267107,0.3298855596320469,0.23425724670794468,0.11432484915706276,0.013123066735464484,0.00830166146308331,0.10023756848644494,0.21132287545340533,0.24649889599303743,0.2051948977284388,0.0891066384192305,0.004177596187146637,0.0,0.07483229297105698,0.1942868916911693,0.29472828188112743,0.36378830610249,0.43673953023372203,0.48516686832397005,0.5294989380480604,0.6049498126371509,0.6884022341928717,0.67853652920701,0.6521177431771563,0.5998171232953244,0.5236557229469789,0.49224096211771595,0.4522867270637607,0.41032451626751865,0.36971591846463303,0.33302239630500896,0.30952611185510337,0.29688006135350253,0.31759882067267364,0.3596970608734411,0.3762616526324929,0.408904734114496,0.40431544288169796,0.3936092070176658,0.35739820906766173,0.2956904968420364,0.26273262672180575,0.3102241714344789,0.3821267947550617,0.43070378617783334,0.46259449324099267,0.5154430815630513,0.6146756955078874,0.6908234080602709,0.6273381116294647,0.5251757336528518,0.45584164635998325,0.4072394711112217,0.3407783914268796,0.3681900358375727,0.38285012220475023,0.37477082399904793,0.37978992312363014,0.348133423232762,0.31428895144760016,0.3154866629386359,0.32883584211594563,0.3490165318437186,0.38107247123056576,0.3627698637418342,0.3626387750871811,0.3873257421413583,0.3524121715325692,0.3005600058336646,0.28310744093605633,0.3175031646277695,0.3858324266227613,0.4432991218247757,0.48040052396179656,0.5273701608331849,0.5920349908828264,0.5559382614822588,0.5027348304976056,0.426079983437488,0.37618570658502604,0.3879251107838577,0.41325362207238525,0.39074390551742333,0.3805006790669947,0.3675033680837987,0.33057809590118925,0.3299216633939457,0.3513676441881932,0.38833374555201194,0.3875203637073752,0.4125747460017686,0.4190880914028088,0.4354806243446898,0.41222599095419765,0.3524731353595514,0.2984079156254107,0.2924567107146747,0.3488713274280477,0.41850976727431144,0.46533046220158525,0.47893273986574414,0.5410138746520152,0.6414956608695763,0.673571754295569,0.5904761124829014,0.5399545630048346,0.47573131409680025,0.3930671414618536,0.3960900749005649,0.41892048544512406,0.4013179008047123,0.38085984733018163,0.34556663517736874,0.303798824913613,0.3134980213172178,0.31297393383938665,0.33488590948754116,0.3857904323637995,0.3874557840005761,0.39925292901589104,0.41108034126635573,0.3678372321451908,0.3200994108574111,0.2627264914040386,0.2743956648959891,0.3399336056051636,0.4059859051685475,PM
0.9131744933690695,0.8826446198368478,0.8309217480992728,0.8172926695487033,0.8612831993667125,0.8978535183463825,0.8979558422940128,0.9057849670260711,0.8993016808059231,0.8475674666494273,0.7788304781540936,0.6906001190875048,0.6019894630540668,0.5144192333855617,0.4280568412267878,0.3925802806285983,0.4660241648416936,0.551804249127817,0.6388176633808629,0.7259147498249361,0.8117720366640364,0.8964449304144009,0.9376930909607473,0.9057956555842401,0.9028013374285846,0.9165889937918792,0.8985499812101405,0.9048069742001763,0.8970210809989636,0.8579011271202626,0.8061331810562988,0.8108479487334246,0.8620915758696328,0.8995971429630609,0.9145918787521266,0.9209205106288787,0.8962939725534589,0.8433163117816838,0.7683784122397181,0.6838526268572291,0.5951112179218407,0.5087702554384941,0.4520265232067078,0.5094736629286059,0.5989013061614934,0.6851981039011097,0.7734334694161793,0.860064431699088,0.9430465900464653,0.9912939737052973,0.9683132965903836,0.9773457638693721,0.9697302404178807,0.9693130267134316,0.9788578929371179,0.9630787570418675,0.9217623532745567,0.8687985827639335,0.8448114139549734,0.8903915314012172,0.9441048815592192,0.9647287610093727,0.9538664898395688,0.9526056302527679,0.9336375794915535,0.8704726947924024,0.7940944576366136,0.7090435993535091,0.6225791989942653,0.5338886669191747,0.4480270270029554,0.41194775478698475,0.48427791544556076,0.5661257629112963,0.6405193698669114,0.713902512552844,0.7994999026345437,0.885146211178031,0.9667080893241218,1.0,0.9636081517004407,0.9468527074341464,0.9483605671365893,0.9311071177201005,0.9109297704278914,0.9001182763117188,0.8848270494402211,0.8849161489118404,0.8611414838881752,0.8113200019529785,0.8088474130967405,0.8674262878106063,0.908802780304613,0.8842380117527173,0.8428728822750979,0.8549873021906378,0.8649679385093629,0.8280977617986132,0.7651893853742859,0.6927498286982257,0.6095655357343002,0.5231141959239745,0.4369606978943934,0.3479448891093404,0.27562281651285125,0.3069889381803289,0.3966140279274226,0.48256800139128253,0.5726625791302313,0.658006056083454,0.7428437036887963,0.8269021704146664,0.8826444665658406,0.8666539128144068,0.8734320411739733,0.8605118800439198,0.8489603371594601,0.8560602285292465,0.832731056208676,0.8189935158736295,0.8383517431014933,0.8399401186778348,0.8292827531625737,0.7678975557211456,0.6820607833800696,0.5941472281808613,0.5079438285962663,0.4175906311966888,0.33156847307419657,0.24156445586544917,0.1555799978512976,0.06786463040916368,0.0,0.02951260119447141,0.11382413713519235,0.2026391748464751,0.29521446994199063,0.38762153574335634,0.47490614130080533,0.5607397449030382,0.6439346229698895,0.7168414940495953,0.7853722898457538,0.8314196416948214,0.8161781098688479,0.8068570482101884,0.8464732521699248,0.8681830077241668,0.8196410797616276,0.7647999893186137,0.7717406977809751,0.8251634430637724,0.8543609429550807,0.85687408880187,0.8697715776445232,0.8838853047797564,0.9012166722655908,0.9200636957611006,0.9206828093148491,0.9259196962084322,0.9289038870753925,0.8619231231767179,0.7712091937805874,0.6799021401722831,0.5939589987517853,0.502869751652782,0.4162644300688776,0.3270194733755253,0.24092659742999456,0.1544979715100181,0.11643530516380785,0.17957767985266504,0.26860322840810147,0.3551696588242772,0.4466212937424572,0.5327414106238553,0.6234992877228078,0.7152913713391149,0.7985978920802699,0.8687830171055917,0.9133797012595402,0.9246843591112592,0.9335093109455006,0.9006869037369147,0.8410354129806539,0.8045076378253548,0.8305754991701364,0.8850979718311935,0.9308944688827476,0.9475533650895442,0.9320252077359643,0.9436316907685378,0.9413451099064913,0.9197412403120431,0.8585535130155941,0.7715215434994289,0.6857953735925804,0.5990152298939624,0.5106431216164682,0.4222448402618564,0.33436953737464825,0.24350083939759926,0.1581052469242883,0.09669481495759258,0.13917802852074013,0.22612242589128573,0.3130970384302568,0.40248978958005344,0.4950952673177269,0.5877087456494667,0.6773405494338771,0.7618285147959465,0.8317697863797231,0.8789930268371857,0.885361459761522,0.877082600384784,0.845066759828609,0.7909831102551039,0.7588894287691581,0.7889386984057798,0.8428835137606951,0.8762902899814595,0.8732736841005582,0.8733118325806495,0.8806111344322649,0.8647123652309001,0.8568887075853553,0.7889835259874269,0.7035899606115044,0.6172704000723939,0.5292570665183434,0.4427978378333244,0.3527776322121583,0.2629996199142307,0.176465257280908,0.09092863426597197,0.05149143798736899,0.11677884440329667,0.2089329152123104,0.3008058920547312,0.38689943736535715,0.47762212044976105,0.5622814543409025,0.6251378671828616,0.689813625242027,0.7690423787736052,0.8365307485444999,0.8749714963478563,0.8701098359092145,0.8691115252816886,0.8305299252357556,0.7840541919402628,0.788156575809724,0.8399391533500808,0.8770247373545685,PM
0.7967372280345826,0.6699863539557587,0.5434794234870788,0.5879953889097385,0.6990348177071048,0.7983630200949552,0.8440855622038059,0.8372321267323706,0.8262153039555464,0.8155671076227655,0.7639700134673388,0.721684539664655,0.6532280708699503,0.6773742360887525,0.7294001032153927,0.815167184845289,0.8843551887104821,0.9369679266050568,0.9698489135360173,0.9887824704984931,0.9282070323471334,0.817891622597192,0.6726525592931001,0.5808224831282249,0.7118324841461909,0.8784037490948293,0.996504836754089,0.9831073893622024,0.9165243196885928,0.801758334069123,0.6669615825475024,0.5662694306990286,0.6197590972535858,0.7306346808769009,0.8100589906777396,0.8341907031485647,0.8274925768022472,0.8149537112697267,0.8031864395154811,0.7758386089822835,0.7162608387617029,0.7156420521060829,0.7762852615985372,0.8519196110875686,0.9233169697884334,0.976000138627489,0.9933233446200029,0.9972634936336817,0.9507936670102186,0.8337094467374664,0.6811430273263905,0.5584773708695216,0.6552632838430936,0.8183900948458858,0.9680667986492066,0.9948501345314558,0.9147811894321594,0.8317267680383074,0.7084258155841932,0.579010280180225,0.5517230081616269,0.6466477892334801,0.7396845587129803,0.7945864989727207,0.7926823164601648,0.7617316015033806,0.7188201297157217,0.6705899663502128,0.6152868241781162,0.5381417920421363,0.4956207430906936,0.5511543342112288,0.6320085657336882,0.7144552715699142,0.8036791134757779,0.8635076749193225,0.9254658736614818,0.9566205129443972,0.9038948832127378,0.7840564613923311,0.6542203228872516,0.49918187879702813,0.4595724451497363,0.6190730220311407,0.779706995006622,0.8830635772661664,0.8961693387399992,0.8318239784225838,0.7144033464894388,0.5701229095963907,0.4769511202117416,0.5417025490073648,0.6613945348658978,0.7627354659381593,0.8027362708268715,0.7886298419823117,0.7855406825516349,0.7707615756732862,0.7306796823024353,0.67025423543509,0.6702150367897293,0.7349449411679823,0.8258255932870489,0.896948180914749,0.9601671285621158,0.973251336750173,0.9829097257120676,0.9344933450476605,0.8301979694698582,0.6980422386243124,0.5520479239170779,0.5332571726567643,0.7068337767225294,0.876630184346511,1.0,0.9741165908263634,0.8946610932761523,0.7902963801663008,0.6621356975115482,0.5576772058319968,0.5232835156171465,0.41740985707824496,0.25195620812526,0.0716537294359254,0.0,0.0611384211511492,0.23698065179829353,0.4160349694478507,0.5315998060497797,0.660318547702003,0.7842530047700462,0.8536731960880468,0.7493212520129005,0.5831503620533027,0.4160153162846969,0.24949411532157661,0.13406902535425358,0.2185514915123914,0.3800180502310804,0.5448486316127461,0.6952627192151812,0.8142883198450859,0.8505807827611473,0.8482823484932736,0.8031390735272064,0.7327101147941955,0.6426524241235141,0.5712596785364727,0.5370633153171545,0.5745581458532145,0.6437870267738353,0.6776810852230524,0.6742591079956055,0.6700289392678114,0.6739430783357374,0.6056975357570957,0.4958522066304347,0.38434807579573604,0.3801655727596316,0.4794026911572784,0.6296125918376481,0.7360344010317741,0.7918492875994811,0.6925262917285133,0.5052595187740456,0.33060019439568666,0.1614334932425714,0.07278523553587801,0.17038350819998938,0.3281438309560514,0.4915289867300139,0.6499085223615246,0.7845212601820366,0.8393217993965694,0.794071366514304,0.7297045555886106,0.6583656679603944,0.5666055807822525,0.4793482859272151,0.4210877253505547,0.39025328927963354,0.4507821710730626,0.5237354940304577,0.5869576968700381,0.6231362467983166,0.6533230841397337,0.6894350194607695,0.660474192543953,0.5644926458024706,0.4579008967633289,0.38393243428787205,0.45209882279892266,0.5685933278892108,0.6989872554595751,0.8008956695298961,0.8048459420541567,0.6615945452169019,0.49073983455858805,0.3207423566168064,0.16329188145960316,0.16250818716085158,0.3146317265794716,0.47870299606725464,0.6393776166009264,0.7806406536415089,0.890383089936889,0.8923382719514166,0.8524447248838447,0.8146693951047919,0.7417269540671132,0.6567628838611341,0.6071342588355586,0.5755903621554257,0.6323141631027589,0.6868779647084073,0.7058064771078554,0.7165357989144088,0.7367592069092552,0.7286413394787488,0.6905057252591975,0.5918766470639651,0.47541671469442814,0.4585702494354935,0.5501372578439803,0.689217914001949,0.8072173501585898,0.8562318943475429,0.7684725220565971,0.5818884037886773,0.4082233850837973,0.25891716136838383,0.26945466301307697,0.4089120885887656,0.5680575725104475,0.725975719729683,0.8485787247274299,0.8706165906451471,0.8346933110247319,0.801186830669919,0.7441933048313985,0.6601784952985525,0.5937209887513282,0.5430488218785028,0.5584268211764458,0.6291039801085017,0.6773803377359853,0.7025045250528112,0.7093640695413148,0.7241753245716485,0.7231752877653168,0.6315777377373664,0.5131487620775905,0.43399268998138485,0.45631412891833456,0.565111196283719,PM
0.9451151902509489,0.9544903063257946,0.9347529763889393,0.8939080906877506,0.8325866434664191,0.7811234105177951,0.7031044909893198,0.6055501212761223,0.5135895233341314,0.4287422983597946,0.44184481012151555,0.5420340297159145,0.6461567997686324,0.7430097227374943,0.8343584701862132,0.9020310044605904,0.9030117841299281,0.8949780917605852,0.8612716894934251,0.8266948365440563,0.8393924177988017,0.8682317343400234,0.8895417973062314,0.8785261124006143,0.8789971601115274,0.8651556554953947,0.8479337686512849,0.8390756466632594,0.8333165310075101,0.8220761498656011,0.8201832495494579,0.8079189045859312,0.8221208987994861,0.8203274332097428,0.8163965791942338,0.8430413061500521,0.8782273640680087,0.8965440900522881,0.8969994471619829,0.8966619107888445,0.8882509916498298,0.8948120068007512,0.9069691507450071,0.9069812253735681,0.8966444499030379,0.862904923100605,0.8166130656024959,0.7789438068770529,0.6990003491816836,0.602113440541794,0.5104153968246063,0.42087602054059814,0.4423539779015615,0.5423442980719513,0.639830777886375,0.7341894055810878,0.8251134925577894,0.8845823508606052,0.896284053595729,0.8813625394367823,0.8787123771077276,0.8765895101749475,0.8875458519667896,0.9054628222722834,0.9130867798478468,0.9249111451678294,0.9178083301975455,0.9234435329362245,0.9222788473277668,0.922880009020701,0.9221933507044031,0.9210634106630413,0.9196774096338978,0.9277072801144508,0.9302282424587334,0.9369967701423201,0.9424589775306578,0.9303000504096042,0.91797607856581,0.913605524132554,0.9133033728994511,0.9036441556384764,0.8868271574846276,0.8837854403741454,0.8993169210822234,0.9029897214127234,0.9075687036424032,0.9279940105399416,0.9445761159629982,0.9385709792532471,0.9264862039149253,0.9243927605695779,0.9365845976119231,0.9543117816553559,0.9634391093190893,0.9882589328960238,0.9929790648271541,0.9757575829219942,0.9306291947889533,0.8818861583492701,0.8198198128123166,0.7229453516637945,0.6332242842946536,0.5484681944396319,0.5565533010807473,0.6483016691921961,0.7441478704536892,0.838751684201368,0.9293243026223481,0.9876854072272774,1.0000000000000002,0.9895983783356119,0.9493635324970613,0.9430634680542538,0.9531984093850803,0.929943347846742,0.9639825869573044,0.9951017924685359,0.983056662982351,0.9334301308539923,0.8956076612630472,0.8637960965826676,0.8896219405950012,0.8814779845565053,0.8853667370643901,0.9159387102432659,0.9354156548686021,0.8871208832522683,0.7966879336313031,0.7017382652104704,0.6062553152403549,0.5098149574689914,0.4109751121161038,0.31750520567586116,0.21640405876991164,0.13665152741219422,0.14333897318375777,0.22890840431415227,0.3323933003284145,0.4365964749225124,0.5362221825164066,0.6259253578037842,0.7164762922015593,0.7902851352979952,0.8444600964384603,0.9072191160896244,0.9303888651420504,0.9275295300102366,0.8998671477759037,0.8971512676737909,0.8790038694130196,0.8726798683582209,0.8682984795584245,0.881375049307185,0.882037538635845,0.8724413269353628,0.8489588114146638,0.8407107478414348,0.8382091968465482,0.8266989636817421,0.8371718701863384,0.8453154863035393,0.8473987437815655,0.8624451224460594,0.867938536110622,0.8692058484109266,0.8760914232018984,0.8865159155169839,0.8749037144093841,0.8752948257555271,0.8733757277159839,0.8590727658754156,0.8590903736577185,0.8604904670877367,0.8619632837027364,0.868246852159871,0.8581208871843173,0.8630714082605044,0.867690643696801,0.8549645401113597,0.8299807546569717,0.8119111087854558,0.8149324837988734,0.8168929497595194,0.8326251816030494,0.8274974799347119,0.7547819140475795,0.6588174715068738,0.5645217240321652,0.4667373882452004,0.36915967084665424,0.27455322069236865,0.1742530371270854,0.08226989301734489,0.0,0.015614229328426266,0.10563212122620147,0.19852703422360585,0.2983101385434155,0.39072484346124425,0.4940433332807437,0.5972100481493416,0.6833488196769133,0.7435270696181202,0.8040679549655005,0.844541321892968,0.8494154615126221,0.8556245988316882,0.8437409310612602,0.8460311588006186,0.8462783393988109,0.8421047036032625,0.8395982040518197,0.8186129532823705,0.7850506359815916,0.7626631370205115,0.7601505206841865,0.7664001200535513,0.7522877980463665,0.7626926844872639,0.7739316634412934,0.7792963126743657,0.7907987568385015,0.8020001705368169,0.8121350277265422,0.8235791373778232,0.8288473019675473,0.8098084870555284,0.777310032384986,0.7562030773663049,0.7748647400522117,0.814103674070773,0.8452687628474747,0.834746071884042,0.7660808310700682,0.6741237406955827,0.5768186953353036,0.48510033841647826,0.3839179354853124,0.2906675156424343,0.1918409871808875,0.09985403855710473,0.06500561987916842,0.12822910371110807,0.20662719330740598,0.2979325524024452,0.3940397609379429,0.4838249474380534,0.5744408435984083,0.6732724745272891,0.7433758202816219,0.8082436587866229,0.8633119651949885,0.8876487471622261,0.8951221826941069,PM
0.790346116432461,0.7227662951950866,0.6523807201314584,0.5741948888126491,0.5330734397964587,0.585399351991613,0.6682673247853756,0.7530965557074429,0.8133148057739041,0.8539214366386023,0.8739902478599508,0.8358311612155331,0.7760967433777872,0.7431455097475057,0.7757403263176319,0.817127034548609,0.8397767772861267,0.8354666394246726,0.7775040413924241,0.6875380238054847,0.5919121461192667,0.49458671495019013,0.518963132152698,0.6357783408593631,0.7518174039870122,0.8692323263344193,0.9538999173290361,0.9638559026798799,0.9373466189201545,0.8944585471103257,0.8226403518298429,0.7391840231685771,0.6968198193050634,0.7303240863950449,0.7827615013781899,0.8176936604409364,0.8542700974776025,0.8567347530218075,0.8201850373250972,0.7468348495710972,0.68967416715057,0.7116573576765344,0.7511040321848905,0.7800749205684046,0.7744251717004791,0.7328757030761954,0.649972479515033,0.5515853550558725,0.4459494813062439,0.4095399601659424,0.5082917362359956,0.6191600922299751,0.7294438651100701,0.8225860505176437,0.8384152658799953,0.8262456869180457,0.7964529951389094,0.7415364237781561,0.6645749898813835,0.6097571206218273,0.6464386282345314,0.7017469126048872,0.732867616982849,0.7454941014207619,0.7325906436946217,0.6681648070751542,0.577111954126106,0.49401851063509783,0.5028982128789989,0.5469747079749228,0.5948349700844604,0.6316932951895113,0.6539614208986153,0.6185277421697162,0.5293148851859812,0.4249485798021593,0.32746417828119245,0.34518304144753476,0.45799281159344396,0.5754027479109012,0.6839546301909647,0.7652459012403723,0.8171647455115547,0.8119044557409003,0.780579338224384,0.7206165674019642,0.6429997283044768,0.5839199149223107,0.6256666655732226,0.690237739902789,0.7379087192634968,0.7847781046497748,0.8062355738409366,0.785788108490995,0.7385391840048845,0.7129891868849341,0.7449515580309796,0.773305958592966,0.798696964421648,0.7927330365726366,0.7310985484780606,0.6423904867289405,0.5479123365349969,0.45594334104187473,0.5061490871091312,0.6198442719998556,0.7351890750040235,0.8484063967874094,0.9495237674561614,1.0,0.9756411032421801,0.9353508811728686,0.8651978160353324,0.7878069999811363,0.6988318107399443,0.6702793477337377,0.7193397650140851,0.7652358848030123,0.7893057947365647,0.7957463126410866,0.7878598740510925,0.744365221524879,0.7283808385969861,0.7064778233380755,0.6599547861653892,0.6118942293534118,0.6071970654498537,0.6855823416075464,0.7798371156840451,0.8543151776238225,0.9099346630615575,0.9173270629221539,0.8349311037579157,0.7228551926029523,0.6090019511916003,0.4945725227543978,0.37488870668173613,0.25741223342025643,0.1415762676642518,0.11459365415670453,0.20734556983578267,0.3213330662835081,0.43698340731373264,0.5456863774248171,0.6370123311060962,0.7182087351754292,0.7394410810911332,0.7129123403037632,0.6764304723317758,0.6578799624133262,0.6806452086418884,0.7295281294061793,0.7460211708359128,0.7093684306305605,0.6676191742593596,0.603942476895794,0.5419127764788323,0.5361390089625613,0.5984563264312741,0.6769799799013834,0.7386931333760751,0.7588658458819615,0.7119909801596718,0.6066233415981155,0.4928506970852462,0.377892569543977,0.261871387103088,0.14464974919584828,0.050557427747949024,0.0,0.07474433889335375,0.19238651971806275,0.31630232212533693,0.42162077034125334,0.5155418695540024,0.5898393951472909,0.5785194652908312,0.5434052010976145,0.4936281066446053,0.4500557863421508,0.42871755416424495,0.4797466298509887,0.5621618243105893,0.6506490814561348,0.700536386142534,0.6919233111843446,0.6607460487470895,0.6071687473180072,0.5517268833718805,0.5560423691876117,0.632103437180302,0.7053192373503321,0.7586560420124138,0.7674800987361436,0.7476629738085863,0.6509484650187587,0.5341450773281782,0.41962110380084283,0.29971306211223236,0.18119437935523042,0.10357989682542623,0.15243518874934958,0.26173307734414974,0.3796294406638894,0.4926952152076498,0.5994476319756217,0.6899509877545604,0.725971630428202,0.7066338745409322,0.6757361862602398,0.6351273135410969,0.6371223278003395,0.7019545908710283,0.7725108787131472,0.7942917205496842,0.7676207082361204,0.7306795909527124,0.6817972701420034,0.643196977323754,0.6365815404822732,0.7098542586530532,0.7998374263073673,0.8643996205010676,0.8988915270073172,0.8728508131405608,0.7769993995411233,0.6605045597060291,0.5451599998600649,0.4280076935135857,0.3067857456820362,0.19028437935074827,0.18393399237861852,0.28602137340645717,0.4026329709176131,0.5183938732879514,0.6178558648944676,0.712718981036105,0.7779876080678321,0.7749810374330108,0.7529815048712782,0.7128309401129442,0.6864820565583867,0.7080884381263646,0.76862407018108,0.8115618728951932,0.7936505393361517,0.7520150753280515,0.6723976445539699,0.5807787559700626,0.5094937162782309,0.46897003800945436,0.4942392783347249,0.5716170560871574,0.64899351914275,0.7199233712544171,PM
0.5387593666845776,0.5543769225460484,0.5820336954120076,0.6021585048751841,0.5777948876253243,0.5757482604920812,0.609711989677248,0.6201362917430346,0.5773773772427466,0.5435289519560431,0.5535121993693868,0.5839750185965435,0.6201192851460302,0.6166811825512646,0.5881901459055667,0.5917177525214949,0.6079020044681198,0.6111106898267904,0.6367545390778755,0.6512610218404817,0.6622242539706957,0.6594824015812897,0.6720711589910766,0.6920449259439478,0.714088307706473,0.7041475306565834,0.7135696580135922,0.7239366118888793,0.7462312913315232,0.7379154393248206,0.7045071913615195,0.6695622533968724,0.6312726772264252,0.5617931039907074,0.5049923509289469,0.4760279784563277,0.41825012942117246,0.34211622287889565,0.299055981885914,0.33478133375415586,0.36300587178647215,0.3849985829933149,0.37432271699048014,0.36777820193768784,0.373159081024252,0.40484856250784906,0.4628714540300254,0.5362497864185549,0.6110295218245785,0.68578711913664,0.7573235433571144,0.8239548957273493,0.8516672459310053,0.7936462835298856,0.7217134886954217,0.6667565685104813,0.5997954923348443,0.5427336254582942,0.4837250690391488,0.4216856199851109,0.3653228833727682,0.3048341530106309,0.2151044623475089,0.15628296720018398,0.19980803038639072,0.28064258852734847,0.335873133070133,0.3237733360678048,0.282533224980849,0.3281411167547059,0.42495293252465016,0.5050414827135237,0.583028167160335,0.6576739350987229,0.692840908829953,0.6704043960690513,0.6745835366171806,0.6640586784028519,0.6599171447586984,0.6672746663249143,0.6740875876780668,0.6728205356384178,0.69339550535283,0.699688208823837,0.7033054324070709,0.7295232684372359,0.7344419730187721,0.7276535255026211,0.7281825323785291,0.7292158773984081,0.7144697269872999,0.6911332311306397,0.6929181929414518,0.6746703716963665,0.7161345333605178,0.7519664977206157,0.754718698815358,0.7708872533379183,0.8353388526045316,0.8758334220781134,0.8823453393821881,0.8418937251835685,0.8278085618888937,0.8137884988259025,0.7842245328221855,0.8050714479369421,0.9027490051836278,0.9897951171017954,1.0,0.9667393905952744,0.9189934248714744,0.8784858014484382,0.8242415598726911,0.7620681428915965,0.7010516550959518,0.6493996556085935,0.564869524501372,0.47217856872910113,0.41586832676425045,0.47611523415654977,0.5587750243979701,0.6217085090372718,0.6408372127172841,0.6042930883697415,0.5594612508744983,0.5804859824682831,0.554392433810067,0.4792640825872492,0.3915618492736064,0.3055683547136434,0.21323009630652479,0.10870833301847238,0.05672849014858494,0.06249717070567584,0.13456764007783484,0.23787819067257399,0.31633764074432635,0.3934816555933991,0.48015924145974376,0.5744493845238829,0.6410312221425247,0.7000086315620444,0.76178156228851,0.8146682206278544,0.8540919122459147,0.9063127947936618,0.9075551760329428,0.8280307262372912,0.7355646397661224,0.6481186702794761,0.6244956346948074,0.6887725462205521,0.7457606392197289,0.7647854098461124,0.7762276858350048,0.796851072485707,0.7620255357985246,0.7090385536107036,0.6931021522754057,0.6966061062324349,0.6729031393236848,0.6249124297858248,0.6107680086489249,0.6256740300255847,0.6324114147811417,0.6452205770468025,0.6619988117032674,0.665640659745701,0.6738833230255681,0.6729080165759944,0.6528758161555372,0.6379945082900114,0.6364922257730772,0.621093926834154,0.6078399594049242,0.6095840698201527,0.6056143959728026,0.6097276263703466,0.6012188355554784,0.6013662551117185,0.5964586466797921,0.5350699534431662,0.4557974547977457,0.3723939896683861,0.28352894151043184,0.22481434855990656,0.2315773210608576,0.2554538412905827,0.182059784518791,0.08772128079907437,0.010072604297970855,0.0,0.06903577970173735,0.14184749637214944,0.22119072260605632,0.30501114407574903,0.35598282077251664,0.4149599977572862,0.47936598721464163,0.5394796430510453,0.595268991900332,0.6604293859229222,0.7230980584736022,0.7326017520090953,0.6645972792475972,0.5904111394575606,0.5207560720040512,0.4485210653038476,0.3758793734241239,0.3282373721633949,0.3058896568035143,0.3051405019612323,0.31218007252612345,0.3226226887390422,0.2971158180027733,0.2623174905202865,0.21252601625904122,0.2155304192410732,0.293363334532323,0.38025981223287175,0.42460955298290637,0.4568150070396477,0.5270809404746846,0.5909723975489829,0.626608733211762,0.6624348973788523,0.6702175676739839,0.6569992276661769,0.6522441870694524,0.6431838140608694,0.6527009544703617,0.6289754016797606,0.6160623739559914,0.6023957220457428,0.6002428343954316,0.5845556797505824,0.5631306972382726,0.5558231261346358,0.5482999353437772,0.5250806826336234,0.5226635440250917,0.549906814432044,0.5540520957685726,0.5168454927305106,0.49707019027858124,0.4864904866464026,0.5064570238942006,0.5486830921770416,0.5373066116718941,0.5163252073537952,0.5201241895885813,0.5330690031765308,0.5127681482660775,0.4900944656815307,0.47429986374650657,PM
0.7689943346512789,0.7641751054176598,0.758553787883443,0.7706139744416851,0.7798426451648819,0.7696049422604494,0.7441578335928671,0.6833646901235797,0.6094783773978523,0.5952960367011517,0.6503467394728735,0.7147102138723356,0.7682256326381323,0.7955381521736995,0.8189093521760031,0.8253257030864316,0.8840327142307358,0.9767344644806992,1.0,0.9114574035505805,0.8044195720754121,0.6918381161018599,0.5817612552424003,0.47149825414170987,0.3625987623052165,0.29365276521286,0.36659102420581346,0.47286302733518504,0.5771630274126309,0.6811396737943674,0.7807265794735527,0.8389281997294322,0.8581080233962286,0.8319430723176793,0.7823815253186766,0.7180243401806434,0.7151243966416176,0.7605753050486754,0.8005603641674348,0.7954148684195812,0.7801105806828006,0.7828822068150667,0.7687250077040195,0.7778521393263302,0.7916372175710076,0.7974448191644483,0.7848695922571527,0.7603264667869212,0.7083574033657372,0.6384734859734529,0.5685207646942714,0.5703380498740032,0.6293626516460717,0.6933747002401662,0.7347970328571845,0.761464297481643,0.7732380911617001,0.7836941930178183,0.8455299921682653,0.9360647677830207,0.9321257539240264,0.8375992211391989,0.7314296516145506,0.6175774278791697,0.5090900055469927,0.39736474245469733,0.29689824910755647,0.3058911663752426,0.4168791045511431,0.5256932958375238,0.6315780974177043,0.7161558083172932,0.7876942850059852,0.8148127922233486,0.8150950929196767,0.7715536729017471,0.7086195285705132,0.690420674737064,0.7343066786312535,0.7853083741490967,0.7879251146973214,0.7778850886697257,0.7676004967943912,0.7710919918056733,0.7899183574793844,0.804055725190024,0.7860665842702672,0.7582556161435692,0.6917863478326134,0.6227803233310794,0.5735455402290648,0.6124882743879438,0.672800756485282,0.7271160628230953,0.7625304077199462,0.77128201315033,0.7875586833371404,0.8043573779293962,0.8811028504219061,0.9477560587904761,0.9067038480446801,0.8039993595167334,0.6944777954545303,0.577437489093088,0.4622313271294747,0.3555063761491024,0.25101292227404826,0.26730612455316494,0.36816362945886216,0.4744869418336468,0.5813423561083333,0.6869790500267716,0.7660974331491164,0.793295398389029,0.7874679218350082,0.7586558326868218,0.6966180438831864,0.6466470533419586,0.6748138921106501,0.7268305268168849,0.7140538790982447,0.6404242784032101,0.545209497446614,0.4319846977224211,0.37006419797755497,0.4053090850370733,0.5124838580455284,0.5847158667143155,0.5357542653240119,0.4280973671668984,0.3693229051979021,0.3987331126451461,0.5033181153409338,0.6029096047160509,0.671112555413397,0.7223735817738484,0.7439270691490387,0.7044044972664083,0.6079046198489233,0.5009906686445165,0.3937690864153347,0.29036700327712306,0.184713796586643,0.07957464184163787,0.0,0.04718199567420123,0.15301640633973257,0.2643386748671299,0.3714021785724324,0.48483987092746395,0.5924016089041313,0.7039820009941722,0.7771039116411385,0.7480719930744422,0.7278943740202064,0.7173458553860792,0.7162225754681373,0.6721897585124856,0.6116814461262479,0.5545228850078026,0.5176542694368069,0.5455489189827158,0.6169584935490713,0.690780028553541,0.7349421219839636,0.7491331065804041,0.7474272070625831,0.7288526603143333,0.7213997569728199,0.7245275439162207,0.7300015876586574,0.7164672406356374,0.6620771469142821,0.6206890588721476,0.6404964692149524,0.6986051520648262,0.7584269919429927,0.7630309943426141,0.7373804006394082,0.6534577722354946,0.5497158879873112,0.442563606923875,0.3338811776422552,0.2306758324106677,0.13501225715740528,0.04615307905223287,0.003485691256306378,0.08367426816770385,0.1935391676609226,0.30138289190201584,0.4123263265870545,0.5190181787978423,0.633037029089508,0.7387530598073031,0.7974095105067938,0.7439203300865254,0.7186470588182359,0.7068930308592463,0.7003372773559673,0.6595179642201394,0.6020507545784812,0.5373274870038363,0.49170387482062194,0.5161481929833656,0.586017383292385,0.6576502587799022,0.7083106328674504,0.7280950869824503,0.7308590690313101,0.7181409563402461,0.7151928654151809,0.7264152310668788,0.7357009791001152,0.7394417143769254,0.7330912779139558,0.6837811566591427,0.6488505520389434,0.6523768757203001,0.7102820156720266,0.771988879389859,0.79754388749335,0.7687623472780323,0.6759853527314847,0.5699963106278658,0.46538998062346915,0.3566650950993189,0.25101396766833695,0.14650761799283396,0.05410435443819983,0.06174583813370904,0.15880977631764903,0.2704314430220711,0.377305793628105,0.4919422355794256,0.609182403630462,0.7224351180125379,0.8214655479823443,0.8241824076061226,0.777389409267522,0.7683117995038393,0.7523974705361574,0.7237176003785013,0.6698058714917932,0.6047004981371309,0.5434449303030662,0.5250405032684089,0.571949030774149,0.6458351496368988,0.7089236000879588,0.7257616425009394,0.7281337110669455,0.7204943468493465,0.7045828932731371,0.7080509499507364,0.7193654838038221,PM
0.7839987508939665,0.6866989039325682,0.5903256794516731,0.5988009136266563,0.6902360516894297,0.7715103869286364,0.8426601208051481,0.9051533498502375,0.9402126915952134,0.989582694771459,0.9999999999999996,0.9505124294484442,0.8542903118198804,0.7491981072009666,0.7533931412627797,0.8354585164601951,0.938227360687192,0.9513493607670198,0.9877485406096844,0.9252529151308155,0.8488268353299433,0.7689374725915168,0.6735669979496977,0.6236177523581659,0.6913908403215276,0.7586886785506244,0.7973445483278314,0.8026038046120196,0.7998409354958933,0.8012801848125739,0.7801727896047725,0.7735725757216518,0.7323084521568552,0.6660851867995272,0.5787156376084783,0.4940361755490712,0.4435719511871441,0.504758768110817,0.6063414677989276,0.6841334363296467,0.7338945433299817,0.7578938232368801,0.7890469820460582,0.8045218958097524,0.7736764080768705,0.6995524499068808,0.6112295230022249,0.6196698512115559,0.6998019776453384,0.7749750348716709,0.8206071948497935,0.7977655204434089,0.7344001820148605,0.6321166869992871,0.5659345612918449,0.5590971072394297,0.6510263490482475,0.7169315836942709,0.743572719274201,0.7581212666710173,0.7770674602277725,0.7833235566331456,0.7564222172203219,0.6985257543343857,0.7246907432747602,0.695707346160273,0.6302488166602997,0.677416412968832,0.7733730035275284,0.8506679931345684,0.9197388161702071,0.9689579752946575,0.9622270225699174,0.9677678819713553,0.9550755864773293,0.8984941575296479,0.7789774443730164,0.7228356905921465,0.7954734785110156,0.9058146327399199,0.9501387580304619,0.9424000063006637,0.894615881690322,0.8096767978129829,0.7233380229915256,0.6840641021158089,0.7436521116556629,0.844841891421455,0.9053635231350703,0.9248913736442508,0.9309766104238997,0.9109386259238517,0.9646703366059941,0.9477094426087382,0.9247114044685367,0.8783355421322079,0.8095489989826006,0.7247177045832589,0.6286887770200731,0.5313781606953731,0.5143251348094826,0.5778962875735876,0.6458353670655339,0.7010918023367556,0.7514285324192334,0.7880201958785631,0.8208940409463126,0.8250505329543043,0.7611343005385014,0.6540520003036261,0.6487150007644975,0.7105988678892206,0.7673105281893062,0.8086582890724165,0.8228985095637982,0.7498283101573411,0.6615157933898392,0.5832633808705681,0.5783221904657672,0.5534034747523342,0.46648859424841094,0.3374295527551019,0.16643541938949769,0.02505347635798927,0.0006047075627368947,0.07974357323579584,0.24519049045423236,0.39630146737099237,0.46435538050368086,0.3771413183493997,0.20691732137731877,0.04930024221008855,0.0,0.06911492333384794,0.2325303026630947,0.40158730940745757,0.5040465012503161,0.558035922271594,0.6378644848809611,0.681795591747107,0.6289414524974091,0.532841876852991,0.4572662815400119,0.4063218157485262,0.4777697860280701,0.591187567426156,0.6717890914087534,0.653062358799612,0.6307402751069193,0.5848589591792401,0.5277739432542012,0.498680728480672,0.43945900961833084,0.3772711966101059,0.3824414655761852,0.4576682157211862,0.5691443051516605,0.6503547248163319,0.72391203827237,0.7760398530208836,0.7963298690337166,0.7766182877170764,0.7898634056622549,0.8050075046224943,0.7651240569229656,0.6629665770744304,0.5816732808500116,0.5349036333778892,0.5899013029447047,0.6937421282292147,0.7780600912524522,0.8339965538068026,0.8211693659793569,0.7232218532906916,0.6193169601925388,0.5227940960319937,0.5488224465181308,0.6522459350127057,0.7835871361429079,0.8574199744131996,0.8756394663211791,0.8617906353302689,0.8538221391624599,0.7942626178495442,0.7242164284884045,0.6393176548081709,0.5424217345178195,0.5144807000162559,0.5496522636280603,0.5833687214928163,0.6227372810425806,0.6724283417121,0.6776499992294842,0.664943294979699,0.6507551591341527,0.6369987559614452,0.6205353670835039,0.5703143640328663,0.47507780079125395,0.4218965641749546,0.4566170820909563,0.5181355409415818,0.6292932065145753,0.6924186062436646,0.684569941696838,0.6101002230064245,0.5035748352487608,0.45425380460463716,0.5186062795856601,0.6175247814879401,0.6896889519778617,0.6959708251155825,0.6456710991294421,0.6473161928213913,0.6285847002491036,0.5698227897497863,0.4917133478402591,0.3974628068350845,0.31487513224024744,0.3077387761089816,0.3766744707629077,0.45135134597049076,0.5605903838651591,0.6280767238407763,0.6569004923939556,0.6763225940409732,0.6994492278876705,0.7073591832541699,0.7000605824580837,0.6835737200529244,0.6100588260353423,0.5283873429633226,0.4535552180508975,0.509249476574039,0.5973983724031036,0.6868949828716171,0.7663764034775515,0.8103356877097405,0.7735653539823457,0.6781608641052173,0.6030562615009267,0.5704429617290914,0.6648586048802945,0.7706808234096507,0.8592466433225812,0.8395170070896474,0.8228881728600013,0.7844993296758962,0.7302301721612339,0.6611013037968223,0.575104617426986,0.4650616655938262,0.4471408377215602,0.505261085959996,0.5976151495655624,PM
0.17549029737567423,0.22136298907514607,0.23788283277238764,0.23859503627775913,0.24580478161492314,0.2526179889753073,0.2543900479689398,0.2416623178253794,0.21378747826434896,0.2070931145344348,0.22905571301614613,0.23770203061616746,0.2424396705906704,0.2553537274979225,0.25144022258840626,0.265020504009605,0.32924725820710665,0.407221205293671,0.48785900791228554,0.5707139778575128,0.6532870658059418,0.7371672740085409,0.8201525201310724,0.9078447333356683,0.9882596614061547,1.0000000000000002,0.9310162992783988,0.8510429273090139,0.7682145886836709,0.6868175219133299,0.6011183836891723,0.5189580716906972,0.43389020223443264,0.34623085103025586,0.2635899255577623,0.17928339120696135,0.11471545695398788,0.15629131586860634,0.22326647205034034,0.2520851022709574,0.251990626810245,0.21331680653062324,0.17872158625861667,0.20067613273943197,0.23278729933553288,0.2418639289387028,0.23414101344870697,0.23861348495892187,0.24336008149703647,0.2205397854028981,0.18550767039517813,0.17280742661441306,0.20946978225798696,0.2205013789989252,0.22244312073169703,0.2268976792042121,0.23216916742542604,0.25452618059162924,0.3228738417428192,0.40210159911879284,0.48365534578352865,0.565445755246117,0.6465887243663637,0.7326147694219036,0.8142713713186984,0.8995688257180412,0.9759750988740932,0.9858183048231066,0.9170813960200686,0.8359790373664431,0.752858464693936,0.669508166196479,0.586411582203239,0.5025568078938079,0.4168813737220951,0.3352159348112993,0.24919333755691953,0.16826434637324827,0.11040591282393253,0.15577125573306017,0.2186497473873552,0.24531018989299547,0.22481291779134516,0.18138460337496687,0.16340337682640405,0.20825510049869722,0.22781571583415938,0.23226616787852206,0.2384645823194902,0.22859258562823737,0.2140485633520166,0.21606733093058694,0.1976245012753779,0.20379270877352096,0.23266467647075895,0.24517979084913,0.22839754780499422,0.22812682795477035,0.23269747983125866,0.28036017902303545,0.3540245963023121,0.43279723887488575,0.5152907940100746,0.5968339623841044,0.6823954653279791,0.765557495658739,0.8492657043401317,0.93170802887521,0.9941422695771027,0.96221744618124,0.8829407291052911,0.8002682018930221,0.7190438710833413,0.6349958276202872,0.552929955858817,0.46779919765622724,0.3859571599039655,0.2992236595058779,0.21775072927370087,0.14367708605392426,0.16033063070953402,0.21624840981546467,0.24157821530670187,0.23208083239719257,0.18418413058309624,0.1642687578601847,0.20609490540148934,0.23087574001895605,0.23280156682248476,0.2322814052479376,0.23135591143682288,0.21986241688858277,0.1960136262380936,0.18904349334562243,0.18967077083038797,0.19218900201491884,0.18967200862839007,0.14941918680303146,0.10510992162817656,0.1176556885765554,0.1674671156963854,0.20394475334122486,0.18573138435603265,0.1277728026896181,0.0689156551941783,0.09019868282517174,0.16684196366020498,0.2485679243507133,0.3353044359248556,0.4168316302162769,0.5027374161552505,0.5862793400925146,0.6698083883529724,0.7571178935023222,0.8090237998509979,0.7490999997042638,0.6680096396340611,0.5831959124554156,0.5018685759298742,0.41889500108476496,0.33990921950806796,0.2658626787051761,0.20890803293947546,0.18569125566165456,0.17982037952894214,0.19019554690798435,0.19635460671694593,0.18482417678685947,0.15202655559908362,0.15013771286031785,0.16380660924802815,0.16479102638727872,0.17857349378602572,0.192429219939926,0.18399899865811875,0.17865551391884682,0.17091553522636382,0.12260979895337742,0.11003476124177713,0.14657498979130335,0.1888882160465526,0.19060200818346784,0.13467879923602144,0.06011789186454908,0.0,0.03366358108113077,0.10452352096810968,0.18351866501594793,0.26940842713050506,0.35211924796546534,0.4365278854843968,0.5234073348400412,0.6047191928411775,0.6843688882191648,0.6881428244638037,0.6094869156377525,0.5282010904317589,0.44691771702259775,0.36468645386037357,0.28671989524212593,0.22004030888391557,0.17777668578726025,0.17538744752691793,0.17305887101225004,0.1814617988679632,0.17712876847714676,0.16274631883287594,0.13283716849533156,0.14449821752858427,0.17652081019416777,0.18771709466488518,0.18822106601956579,0.19231143363685632,0.19691907689391996,0.17363961933661276,0.13682828097377864,0.12970402626987454,0.17194824594992864,0.20574149816597753,0.18626950977938317,0.12024724003211884,0.05597441050953522,0.05337916901420403,0.12508622539339265,0.208821236137805,0.29170525725596463,0.3791924861414828,0.46180138127175074,0.546336394902788,0.6335058432260496,0.7150135275044176,0.7977715979489537,0.8237709920609635,0.7503873049569381,0.6683278755562547,0.5843029321481219,0.5029920362820937,0.4166114620263599,0.334651537197983,0.25893207763938864,0.20938517653066335,0.20205162288433676,0.1983298410684926,0.19967734723356112,0.1855337330287452,0.16482551216825447,0.15159812120827265,0.17246303385042316,0.19985990857279967,0.20412211111026646,0.20026162473458675,0.19389920923236237,0.18824863264632175,0.16719726433467974,0.12261909711628705,PM
0.6562348693340345,0.6719879836332163,0.7020632915507736,0.7122067851873686,0.6324465069400711,0.5820835950246654,0.6733357190766496,0.7901941634409821,0.8867969024561195,0.9529400203715448,0.9206100605385399,0.8164371711649729,0.7465986676658627,0.7383148514387452,0.695247222833761,0.6549061479380391,0.6293571938519831,0.6524578768340121,0.7030495541790143,0.7589316774245161,0.791458537566788,0.8012714652929791,0.7892258003724928,0.7748643839260407,0.785705320747546,0.7756947203522633,0.7718683017370189,0.7705785968161778,0.753562800140025,0.7378607995444804,0.7503961754153998,0.751949604616633,0.7559842116493041,0.787732955635835,0.8048852478266486,0.7660831694565338,0.724066696450846,0.7286002550812931,0.7320188462452735,0.7319149377333765,0.7232967368404353,0.7123850545988395,0.7146592900672846,0.7300165956274931,0.7447883301717986,0.7785340245752042,0.7619510571489347,0.68470142521518,0.609374786809588,0.6789082427118527,0.7829335292750712,0.8929416413349349,0.9781842633112636,0.9941546523666038,0.9181116287561171,0.8296496920838985,0.7790209947525635,0.7468889744611307,0.6931265636136024,0.6368228431536669,0.6025870740590231,0.6332499712266086,0.6885196895017573,0.7276056048400052,0.7319882766244747,0.7288859957845357,0.7306563960258954,0.7292593476055207,0.7271086732699561,0.7300590903151032,0.7043315009762225,0.7022844021279164,0.7119206128291609,0.7121136828360908,0.7121657735423712,0.7207210605610452,0.7525042294173274,0.7690685488361004,0.7455180617212069,0.6953470901746224,0.6910851016815225,0.7105205146683162,0.7086962794602143,0.7037619589636255,0.6912254538844986,0.6748589929013327,0.6729639290949851,0.6863978136972411,0.6992906676744983,0.7490699062040633,0.7537192933815375,0.6771789820534235,0.5730732368686322,0.5386923796050946,0.6310123724332848,0.7431300323153267,0.8593877441302014,0.9568745268538237,1.0,0.9405703426374781,0.8446638898512924,0.7786573260109999,0.7593651637673582,0.712001296461469,0.6430045281482455,0.5993852568524058,0.6181154764516452,0.6690625061570517,0.6999774246371295,0.711828195869999,0.7150998238998549,0.7209288192224577,0.7173714050086559,0.7222912813607798,0.7224208596791746,0.716923416255431,0.7005532398741412,0.6568189208627428,0.6462481889817266,0.6573525871727686,0.6586157385478661,0.6499787127498071,0.6516188090632911,0.655054221362235,0.6549305429455798,0.6317798683092515,0.5972973535677579,0.5510158395272509,0.5143908379437461,0.5258714907067454,0.5855236572549365,0.6506471624902126,0.7084548715045118,0.7268803063517586,0.7743077732400336,0.8317743907334689,0.763007566703966,0.6463254641883545,0.5355166158358915,0.4284125280563935,0.310039504913032,0.19140350227750025,0.08234568571012035,0.04199201167061917,0.1160900703864085,0.22618835092144662,0.3440680937455203,0.44932554284082427,0.561500163938518,0.6438950544943909,0.6268119598462811,0.6168045373481346,0.6118740869045607,0.6142939870670392,0.6123471635257345,0.6325803758787134,0.6374655468951373,0.6511681892525467,0.6572782482030752,0.6306245535988264,0.6291950068211647,0.6692559713865895,0.6995275197621953,0.6807264774493524,0.6573481439602871,0.650962624853566,0.6436723686048724,0.6387024860086981,0.6514223627422315,0.6441645153203224,0.640091624479679,0.6508655491267392,0.6373816255087172,0.662186422977447,0.6632390781935129,0.6539490180944112,0.6623996920880044,0.6527726140360954,0.6338887134800637,0.58086090745878,0.5373033038301669,0.5126943941163424,0.5557256277651037,0.6174847057675028,0.667089461760836,0.7121402459533175,0.7392198800213712,0.8063616633072721,0.8442835103478448,0.7479950751831472,0.6443006894173071,0.5291582428775317,0.41801863455507204,0.31123604389369763,0.19758334461542848,0.10317183530645924,0.10185109225044542,0.2039004319900819,0.30757655792122485,0.42280618171552886,0.5336598269238295,0.634571054258354,0.6883052839326465,0.6805404920269238,0.6655486646463742,0.655153295118708,0.6415545758660204,0.6416256809158947,0.6621300771182619,0.6733957381088094,0.6695304471192078,0.6645149114845723,0.6764513337362059,0.7199379547671998,0.7269522366037013,0.7000067171019602,0.6850777925716129,0.6841647535276185,0.6774848602447161,0.6827511338979679,0.7025429445518414,0.7058144186378827,0.7207784061528577,0.718549607628951,0.6964825126758023,0.7197072867286529,0.7265057509738031,0.7291846757049929,0.7095462049378245,0.6560827779175429,0.5978438193860547,0.5698887108368282,0.5725142239050389,0.6049220761312064,0.6461260377544278,0.6733461678434316,0.6943682805008091,0.7355574178192299,0.6452929054588066,0.5282786300147175,0.42452864021288406,0.30948090309534626,0.20144070952601156,0.09228071647658354,0.0,0.003360035157013108,0.09586280590313345,0.20627417377311463,0.32487763310697293,0.4435549478702958,0.5558221790567948,0.6041538535002666,0.5797936691419019,0.5890472375804916,0.554411992113419,PM
0.789227828652511,0.8181637487761138,0.8035205763565334,0.8106011606338188,0.7990309283716845,0.8197641398262481,0.8232554089849993,0.8191965347391195,0.7871522408329326,0.727664596087584,0.6434690946522794,0.5870940538115783,0.6194692239780286,0.7039683260996368,0.7737664682849297,0.839497554979499,0.8946725701527392,0.9333347375130061,0.9345975610266786,0.9251088993432344,0.8936744452754639,0.7964491292070526,0.6760710567391675,0.5499856055696672,0.5514113601919184,0.6802003970287189,0.8079374237213184,0.9271018157820179,0.9876402166284945,0.9514672603911705,0.9136287474359661,0.8552692684310612,0.7856756888343259,0.7090505848183475,0.7124140402803425,0.7722294130473366,0.8316441810028592,0.8338457165732005,0.8273527053561698,0.8133824391098265,0.8118161324211668,0.8090215116160602,0.7857254856238511,0.7384447892295833,0.6684911194908874,0.5948310021619663,0.5661843915360283,0.62779095474058,0.7125482483205259,0.7974868394182031,0.8575449135946469,0.8994674973567891,0.9308814823765705,0.9251672297906728,0.8800512207811209,0.8020307256847192,0.7032954846871107,0.6455589414195688,0.7482245426533325,0.8741382189844242,0.9757201617354414,0.9749385346546009,0.9346363686411472,0.8891094338701868,0.824451754440894,0.7354600464646324,0.6958687597013018,0.7409035607152847,0.803717768196162,0.8552184074696045,0.858286729667086,0.8522404701799755,0.8373683318481704,0.8388887821846591,0.831292842173001,0.8305059024133432,0.8122216057667537,0.75269186227758,0.6799805490635187,0.610007090091405,0.6174825428280055,0.6877524577197525,0.7734880020564692,0.8490507113548555,0.9009142243916091,0.945871420732912,0.9701630554517036,0.9717840797783861,0.9202542416653232,0.8372145216813913,0.7406726839595965,0.6776617533635498,0.7810294323283982,0.9050921158669012,0.9999999999999996,0.9878353110996989,0.9412793849503336,0.8992941498263964,0.8301266395204037,0.7386317765553843,0.7086757974542937,0.7653614075249915,0.8191802585377363,0.845755473396252,0.8404272843076002,0.8208154238948495,0.8048454607768476,0.7867261380349047,0.8001145461579844,0.7856211833204707,0.7414735845429714,0.6680500055578973,0.5909484327721888,0.525617076595081,0.42010116284581756,0.29616189964462203,0.256553304814378,0.3152639455947046,0.4455987844566356,0.5667684268640198,0.6340431738030388,0.6976939864053961,0.7144270492137297,0.711556488635873,0.7266272102867162,0.7464887841157375,0.764998813314612,0.7576025993862072,0.7095573939070849,0.6478942308876356,0.609495441494849,0.6586357725667606,0.7380780465263825,0.8184303065699781,0.8644381473738578,0.9032864573618662,0.8686933945546182,0.7470061899271832,0.6170920992271012,0.4926009288837063,0.35686704203893704,0.22997947664630525,0.10322480182083016,0.010504010063427494,0.0627958067023302,0.1873878453383644,0.309656955458951,0.442827127103421,0.5665891650777146,0.6935861584551195,0.794022644407884,0.8731090459684006,0.8829050453807552,0.8522151492514807,0.8178381292228911,0.7649626439007964,0.6874674116799162,0.6062819276366707,0.5353366966715605,0.5114353518356536,0.5588775760058837,0.6387136590124989,0.7147989105293142,0.752472643079829,0.7571066208512192,0.7502769385626107,0.7551865215052187,0.7660741687204062,0.7833314642216362,0.7827585338148322,0.7445566619773287,0.682175376121501,0.6167359778934642,0.5930830772920883,0.6482657385250938,0.7369481039025545,0.81018188816198,0.8535792617728637,0.8740321931560091,0.7940522686546472,0.6661968555147832,0.5328243446262699,0.4103832160845311,0.2759172308673561,0.1496560358352932,0.03402672470241086,0.024093491724308524,0.13479789135548348,0.2680029672923401,0.39028483113995316,0.5241335852540643,0.6471073823779938,0.7483876410273043,0.8262225794259264,0.8477206615346842,0.8199945583882209,0.7817859268184093,0.726223515700593,0.6364131207773309,0.5522482988863122,0.4892223869277066,0.48440818307896727,0.5444188823152971,0.6187315627180574,0.693470036132402,0.7313657602681012,0.7321327956572135,0.7188686382036837,0.7347712668951885,0.7449447262161684,0.7676552208044596,0.7634639106153442,0.7101712767857093,0.6437366471932195,0.5911851423354095,0.6258135380475607,0.695738725172085,0.7796916572394346,0.8367536242031646,0.8687910940597194,0.8654403097975005,0.7504791438881142,0.6260374502330652,0.49030459192130094,0.3634081175994508,0.2357993080758911,0.10206662797943933,0.0,0.011333048396992229,0.12072836359443206,0.25265123698246006,0.3782681872949305,0.5071971682452627,0.6403384007843447,0.7609344317679305,0.8406971391786402,0.8534628499672618,0.8356552921267708,0.7983178199952525,0.7340587149827247,0.6627836780091183,0.587923415863298,0.5120674579024134,0.4948700831688111,0.5529059198707027,0.6396296594078943,0.7109729194811867,0.751303182968333,0.7492834056960138,0.7352499617794996,0.734215037565463,0.7297538625496767,0.7283166804302792,0.7349875682100468,0.6880669861747633,PM
0.8335418886436714,0.8918488152673922,0.9392584013363758,0.9436391764560415,0.9386208266954776,0.9336703243896354,0.9097152430974798,0.9009577863813276,0.8937004060044256,0.9019601569248477,0.9235358897207124,0.9017323628738887,0.8787882383343248,0.8737150471046897,0.8694668212223768,0.8323495168974913,0.8247087033603404,0.839263026474153,0.8432422102091559,0.86138098528225,0.8485699271403382,0.82755394396436,0.7740417323350255,0.6935111002350518,0.6054507686599013,0.5067118023952621,0.40928524107464503,0.33601261714118147,0.3947026481419087,0.49107799668428886,0.5935326563329326,0.6920149974853542,0.7774818455392372,0.860197451851374,0.9176634976512266,0.9326592521866304,0.8819164124682239,0.805408277376011,0.7639989745798368,0.8033707417849558,0.8660875539848467,0.899650166804856,0.9029233909564329,0.9161593012327289,0.934764166700425,0.9453659615158241,0.9304441146522215,0.9287179724740153,0.9327378593679247,0.9237110052108259,0.9072813903338086,0.9252140110656089,0.9136126109864184,0.9081755779785188,0.8908421248263467,0.8561034469332074,0.8538911267789246,0.8549665410802119,0.8913410556512393,0.9302613133616848,0.9185779536453262,0.8783210660043528,0.8212507013469206,0.7428277314428509,0.6505297424186076,0.546814870351946,0.44494419679989705,0.43394324135488826,0.5201383401154251,0.6045642687161918,0.6999746762523227,0.7882384209042232,0.8717540262228689,0.9484769941563855,1.0,0.9931977168866739,0.9352869906009098,0.860801065265389,0.8529886815818597,0.9069673567676659,0.9626556581426304,0.9792253517977594,0.9889073179405758,0.9777507787711706,0.9690611682545689,0.9670276643209363,0.9676733463230867,0.9593734100265423,0.9586226090874601,0.9664951507327739,0.946585062909548,0.9220798392250127,0.8948523736695981,0.8706117594266973,0.8810310682512319,0.886549844276296,0.888745985041929,0.8611988911595088,0.8056066231661285,0.721791017563866,0.6259022105798699,0.5302457394256836,0.4838229744155169,0.557419619625376,0.6610868092555844,0.7544499713932251,0.8366246212931086,0.9202738317256576,0.9757053980140977,0.9708049061997222,0.9048401970356266,0.8303960399427841,0.822192101884514,0.8752790032925652,0.9302766351087106,0.9447595495821086,0.9163931049162328,0.8970428052367354,0.873870587852748,0.826751887851167,0.8277958125053049,0.8476940026759436,0.8502995461977392,0.8683068206333839,0.8267460403948066,0.7678616647274121,0.7298321292867178,0.7678828998855174,0.8415132764244686,0.8899647486224986,0.8534141415658278,0.766340342104062,0.6792419218182193,0.5781220072843931,0.476636854834978,0.378846642094969,0.2778587218441315,0.19650534043729628,0.10490039731403034,0.06531572039272215,0.1385144791901769,0.23176831870601422,0.32709504476158724,0.4323341761461099,0.5359449444391837,0.6314034238168507,0.7228635232946186,0.7951832918399182,0.823498232077541,0.8162099405591197,0.8254421653944655,0.8217335702581372,0.8176331970563431,0.8493457044680759,0.8635818490902158,0.8789971505362852,0.8938749921227491,0.8964918521289804,0.899879602800155,0.9120067372928946,0.9089655788781275,0.9103014012949084,0.9057697387658306,0.9151725087989,0.9126333919996057,0.8630704470223587,0.8044831861349651,0.7621919046619228,0.7908348416450779,0.8651950652906111,0.9313134267126815,0.9175889820832479,0.844989644598285,0.7622702218915034,0.67203147994555,0.5714125686708538,0.4692045868994461,0.3719897340553142,0.2662447863493418,0.16419737984997695,0.08472307573040916,0.113812315429898,0.21001370204366454,0.30724335795728264,0.4025687988414608,0.4981887038287989,0.5984438429771859,0.6933026805961551,0.7792637640727578,0.8252151494019273,0.822148010789745,0.7985873537452317,0.7748489482361953,0.7837728311003,0.7879011649832881,0.8081695487083236,0.8286535821952827,0.8562231362400423,0.853522435856271,0.8422087415109689,0.8538228209102159,0.8601799069016045,0.8679389861505786,0.8698842015146715,0.8621274463299522,0.8602280602557242,0.8370532742755366,0.8182589662693345,0.8215374614740396,0.7833581077471283,0.7240285536288233,0.6789813923252077,0.7110245076104778,0.775987425712775,0.8448590690733444,0.8374593700567963,0.7654935439397184,0.6836748471063516,0.5952056780794299,0.4901781926177875,0.3838248885777622,0.2774706019305455,0.17182869426885605,0.07548518035793816,0.0,0.029189833268847387,0.1202206451219312,0.22033689765116238,0.317479607530323,0.4154150726239436,0.5130706450037334,0.6077510031542275,0.6986774096973831,0.7532490416301068,0.7750648304207837,0.7503278222819532,0.7422461437806409,0.7427061646555169,0.7386313917375249,0.7531134517479203,0.7948105355842854,0.8087587572138215,0.8160954232786377,0.8192244925802132,0.8287031352363545,0.817640938081861,0.8310700980281442,0.8312226701374748,0.8388654829745237,0.8448048923211036,0.8619876544158513,0.8668030013084747,0.860708678893455,0.8080187247887491,0.747968810077833,PM
0.9263807875041079,0.9134848384884948,0.9097077067876522,0.9027939550542168,0.8603469238391426,0.7881418119374459,0.7095919196069016,0.6416259573160097,0.6650028254265903,0.7325705567090626,0.7988792789049757,0.8601327455901953,0.9018665124855605,0.9228048817920584,0.9365867575788827,0.953533732591443,0.9409742403534411,0.8896772266974853,0.8079295830631945,0.7099252208709237,0.6059962227850464,0.4986438446403312,0.4205292337296769,0.4836741544079197,0.5919810610781726,0.710631654053149,0.8210943181554475,0.9266563296799741,0.9738908386775174,0.9556797465853231,0.9124266990381693,0.8903377648509132,0.9273580803355184,0.9504055772675863,0.9447694323993303,0.9238374341724989,0.9228434975790816,0.9265775650003538,0.9166889804093918,0.9077761437313712,0.9120418809998594,0.9143858750017577,0.924181908369669,0.9156326606005891,0.8697304790193334,0.8061728166926694,0.7401643992411284,0.6630699797080857,0.6383455823486373,0.7010815327915296,0.7675612543485102,0.8227916646444411,0.8714011330058231,0.9081095365009608,0.9428591068066206,0.9527428380909646,0.9471284303701963,0.909691348277289,0.8370422813487017,0.7502543682305294,0.6478276466720156,0.5435148125375269,0.4398038657780774,0.3957695001572523,0.4841419283755306,0.5988952014146316,0.7073033692282491,0.8209373639834212,0.927810129237346,1.0000000000000002,0.9851056693195501,0.9494862003315558,0.9014209534128141,0.9109168908130838,0.9558288060788203,0.9713802915341259,0.9601374593936589,0.9372052282841021,0.9163319124856246,0.9070894343883056,0.9127573991751177,0.9361729586922667,0.9279556036447218,0.9112750873154873,0.9170696231632907,0.8966937960993968,0.8690232788359598,0.8058770735416487,0.7228937487403357,0.6508972198887444,0.6559619919590751,0.7335251430645748,0.8071697941306473,0.8703779781232333,0.9232796067750308,0.945569030734666,0.9483113651625363,0.9556275833621835,0.9411744774216941,0.8920161392965389,0.8107599896941335,0.7153146166755076,0.6127212030666136,0.502466969015779,0.3953071603806524,0.3175758610942332,0.3934041014273537,0.5092628096804395,0.6165158220336597,0.7331949823354338,0.839511122982352,0.9309385716120924,0.957583275406986,0.9529005345660477,0.9050003732407681,0.896898882590319,0.9382653366784008,0.954012070442251,0.9425848201636573,0.9285269143318826,0.9048119887278021,0.870635137126637,0.88042392080583,0.8893483827292219,0.8654405079672525,0.8381472415121423,0.8462744872200083,0.8836724936977107,0.8737352930946674,0.7789104333267403,0.6598033018083338,0.5428922513656638,0.435782795992121,0.3181740743558865,0.2038252826254976,0.09570303649412093,0.0,0.005094282634011016,0.09521725985787044,0.1993550790104217,0.3083117054435791,0.41838613773073496,0.5291744806864,0.6362343738715504,0.7475447958565826,0.8352965099660297,0.8832582908173905,0.8907956113695292,0.8904598216257693,0.8769462675548507,0.8309506218360851,0.7644013115884267,0.6890456248939321,0.6159215845443009,0.560440344443456,0.582166857409596,0.6555417256040796,0.743071098699567,0.8096536064657445,0.8377875950158014,0.8454291283287481,0.8631902807260843,0.8697191583644976,0.8612143339654368,0.8494920854332466,0.8511537266850959,0.8684779562565905,0.8886813399022515,0.9116253895774882,0.9034866513635638,0.8471980725167947,0.8178141275119868,0.8499686387694225,0.9069031693937302,0.9269837275577621,0.858235777629963,0.7482827645601657,0.6378769466626848,0.5258348507431465,0.4065781874124863,0.2871917934292598,0.16976319291508557,0.06911112286815335,0.038363085093140015,0.11888551245501033,0.2270142940199602,0.3353896425326319,0.4441842753064231,0.5526796954873545,0.6548390511714735,0.7403293481713609,0.8222304589119414,0.8771312797189685,0.8865912234266762,0.8787958223675403,0.8538301228660827,0.8127950313270926,0.7668352882997669,0.7037899272336576,0.6360014646149448,0.5764273682443142,0.5669530144758552,0.6193392733985583,0.6981359720479448,0.7844729434313062,0.8408669877250172,0.8629265478963812,0.8531117415561795,0.8419977180797285,0.8459637010030503,0.8573128481133174,0.8618366169030411,0.8643250077696634,0.8617346679344176,0.8720869949539469,0.8871715874428434,0.8583469711985996,0.8231801565837273,0.8357474135270084,0.8828675093553271,0.8993179348400775,0.8229540488951141,0.7124019525980019,0.6015003482362651,0.48339541516624807,0.37588207587622224,0.2600422392056052,0.140894391779822,0.03764560391822469,0.031451450438622075,0.12293496286239991,0.2290056295996703,0.34239502017757784,0.4495002094849323,0.5577540276592801,0.6622367537729337,0.7635929298311772,0.8475505730439885,0.8813615873277538,0.8801258843883455,0.8612476242049862,0.836373828487041,0.8025996631227172,0.7354732040873622,0.6644377544797846,0.6027248975956494,0.5573824209396061,0.5928283119712374,0.6682340722362035,0.7504191716285,0.8214988836531452,0.8487960813171516,0.85290350001113,0.8483695445457584,0.8590949866925086,PM
0.6420898668482102,0.5983209797725528,0.6182249132429727,0.6684851165130745,0.7052793420133663,0.7071618851110741,0.7036565539140749,0.7174845150471321,0.7189273671618441,0.7285203211079316,0.7125807917293734,0.6631413027834043,0.5939323315208787,0.5317059790676557,0.555001358296616,0.6164964723121045,0.6771883713182987,0.7382180445144211,0.7809821194677846,0.8016844052609355,0.8114429475116649,0.8193517427042545,0.782349813441807,0.7114794783045115,0.6100871767211442,0.5104439240056646,0.413410911702498,0.40419313687539904,0.4962498447960424,0.6058105514393077,0.7076086764290916,0.8009827943406147,0.8300004099018905,0.8100771860359892,0.7676347684476628,0.6982489163071295,0.6680944478663557,0.7018364657192835,0.730489794846741,0.7105398180717668,0.6953656030604336,0.699286579451569,0.7155574251573331,0.7077255718733599,0.6899814732119569,0.6434396125994934,0.5734629400112963,0.48964377575458884,0.4355985937262685,0.47861348580059526,0.5611898499034573,0.644738271670019,0.7193130030386314,0.7829083625642672,0.8245494679579444,0.8348921851784052,0.8299436586750268,0.8613479534011399,0.8406605023201259,0.769187478696242,0.6780735462828422,0.5823797812689733,0.48253030848971634,0.46923117907275835,0.5673579466672682,0.6734400510986467,0.7748846101542013,0.8717378218452347,0.8953038350990121,0.881783695358126,0.8306138676540862,0.7628987772243712,0.7050771662827551,0.6846736014165169,0.726768591791062,0.7459560765028719,0.7290356358876398,0.7143927814366025,0.7070436199778933,0.6977101284042029,0.7156593938094431,0.7283801049366632,0.6933242848359138,0.6286791014431417,0.5551830971732328,0.488565966839418,0.49268632585560845,0.5536360899010904,0.6172183395227344,0.6761162499288218,0.7145460036064024,0.7374910037195195,0.7571246214824188,0.7715568596145486,0.7306562411045048,0.6542726097417646,0.5562976718286239,0.4569996294497958,0.3888846728170796,0.4555781238144039,0.5621234322482944,0.6629169257838494,0.7714319017673874,0.8712276734636644,0.9677270350073195,0.9999999999999998,0.9638271610196145,0.911284762424726,0.8448162950531499,0.7764579537179619,0.7462520205933549,0.7702644832054413,0.79149288008147,0.7901160929975031,0.7938778688938906,0.7813166785774459,0.7865777537616234,0.7831703590405323,0.7647462199097557,0.7388690939792169,0.7401300228256422,0.7387379552803008,0.736187100831853,0.744120782064251,0.7502396563642038,0.7236689716737483,0.6925118379980468,0.7060457798812527,0.7579164963147351,0.83108710388753,0.8905107986972862,0.9193030887661979,0.8480181923012944,0.7486055659347517,0.6406480080805002,0.538803175177293,0.4330495870102766,0.32282644281902884,0.22178926794706255,0.11674415983810005,0.04637809509610391,0.08517623110722106,0.1875058119628299,0.294278848065328,0.39506234783955896,0.4975925155819645,0.5914387673814583,0.6720157821403945,0.7201443633101332,0.7066902086226461,0.6854429333265275,0.6512981195267276,0.6017677491237114,0.5337187884663137,0.4711776181428118,0.4210838763280631,0.43283022246445557,0.49761622822998164,0.5700493646617766,0.6431585475288839,0.6743879052391117,0.6561607733699544,0.642295326865572,0.6665651853740677,0.67440331830553,0.6909160011859881,0.6917049405505666,0.6377849812533303,0.6265319286713662,0.6558515720315123,0.7077721368486343,0.7749351477540827,0.8293058092452112,0.8263526933831773,0.7410543710311475,0.6400579857230768,0.5341599582025041,0.4279525819785459,0.3265192749080448,0.21613316055142362,0.10558337294785347,0.019383832200453588,0.0447512541445001,0.13764048414189478,0.23667593741864867,0.3426797258533971,0.4428798234482716,0.5465535938896886,0.6452809068962655,0.7341431875148234,0.7974170011823254,0.8070293101771033,0.7741478904164489,0.7821334513341063,0.7636241098486678,0.7095684690699413,0.6358760218742414,0.559302551572362,0.4792635304757862,0.4020113194037551,0.3880573624245922,0.44662649819221545,0.5283975298513284,0.5988146950965898,0.6424761125271934,0.6657430791706516,0.6609152470186748,0.6455098966548969,0.6484587215408839,0.6654419852785451,0.6680889647869048,0.6254591353743943,0.6008397734348903,0.6260066139118716,0.6874488358882889,0.7536853030619699,0.7680809261419881,0.6995977386538279,0.5989110561960935,0.4934236198165125,0.3884735511852526,0.2859798562959608,0.17842767567030626,0.07875573782415768,0.0,0.035803900747693795,0.13555191788410004,0.24616225856845597,0.35301424226102296,0.4532331719390432,0.5526948905714859,0.6416777052266147,0.7135441651049919,0.7630256797722501,0.7615721323416238,0.7493549147331098,0.713272240042264,0.6576285816077136,0.5957391315897873,0.5315525246023591,0.4717309132272012,0.4735824242617135,0.537978117207081,0.6096212266981242,0.6699341137048915,0.6786798285066264,0.6676260663172304,0.6639204945596384,0.6514490511799995,0.652231138026967,0.6612389759740986,0.6246029217247966,0.5697607580900115,0.5346102648322091,0.5465511705812076,PM
0.5157830677812214,0.47331174416824284,0.40042943988519397,0.34266375941774907,0.3424280788716043,0.4032400598803876,0.4641023331459708,0.49447129136707746,0.4793840108905729,0.4815669389524735,0.48180657010845884,0.4682067824299416,0.4391661956235966,0.39303626020411553,0.4039057328910105,0.40828583893204673,0.4268184915226403,0.4506418458014454,0.48347570348595603,0.49300384443483525,0.4674155456103941,0.47985504600204276,0.5717541393288363,0.6736274183296254,0.7314832859743707,0.7899320387709619,0.8688177047088192,0.8404780704126189,0.7439891668174465,0.6407592074719926,0.5676059694992164,0.5417361214397283,0.47990674175190806,0.41872474397389237,0.3849053689277606,0.42109347785324225,0.4842349472541243,0.5111730012190749,0.510855397791834,0.48094345865436994,0.5269526925946044,0.6124220204733337,0.5736696672257704,0.4809613611420258,0.4353217479192968,0.42485947628872056,0.44096630672464343,0.45943325407266666,0.46522994620863845,0.4948706383244579,0.4992957293246305,0.5012540898803879,0.47038171821361585,0.5360976243938436,0.641758952970128,0.740915972939372,0.7748951279739211,0.8149499199610397,0.8524920103638864,0.7734824884490497,0.679185726798333,0.5945865567140776,0.5392307859905983,0.5182530538806995,0.47556532175125055,0.3946548960909215,0.3671060679693192,0.40937068941014454,0.4699487402910405,0.4917658839653978,0.46765947226209814,0.4663463042927565,0.45153229032748055,0.4520293926918213,0.441703061255303,0.3976979193330008,0.3908522027923209,0.4331594421656897,0.45992077763819994,0.4918511936224874,0.506256534910202,0.4946763907080278,0.46700743738084505,0.5423298409895909,0.6359861917022398,0.6958043845121566,0.7832012753537199,0.8239238777483071,0.7524213131796627,0.646027359487904,0.5694036374026346,0.5273895550955712,0.5078947464829833,0.44281669212170005,0.37113187496293776,0.36736375917421205,0.41770466495269076,0.46170464522664734,0.4881670270866936,0.49107963866028603,0.4699935953410783,0.45006733970873514,0.41980837831027173,0.3863401088987879,0.38480501088268637,0.3947494828974114,0.446871379132582,0.49358985146412726,0.47593260438725826,0.5086130083061406,0.5602261664319022,0.5894186581882059,0.6670882713767918,0.7675633270457372,0.8578602069565804,0.8741423378991051,0.9290445693167624,1.0,0.9507290711346377,0.8465777466974367,0.7477773811502062,0.6519917672511966,0.5736274555804766,0.533884772229265,0.4798401692882859,0.4080281692120651,0.3541438119388718,0.39252855791740515,0.395876283267107,0.3298855596320469,0.23425724670794468,0.11432484915706276,0.013123066735464484,0.00830166146308331,0.10023756848644494,0.21132287545340533,0.24649889599303743,0.2051948977284388,0.0891066384192305,0.004177596187146637,0.0,0.07483229297105698,0.1942868916911693,0.29472828188112743,0.36378830610249,0.43673953023372203,0.48516686832397005,0.5294989380480604,0.6049498126371509,0.6884022341928717,0.67853652920701,0.6521177431771563,0.5998171232953244,0.5236557229469789,0.49224096211771595,0.4522867270637607,0.41032451626751865,0.36971591846463303,0.33302239630500896,0.30952611185510337,0.29688006135350253,0.31759882067267364,0.3596970608734411,0.3762616526324929,0.408904734114496,0.40431544288169796,0.3936092070176658,0.35739820906766173,0.2956904968420364,0.26273262672180575,0.3102241714344789,0.3821267947550617,0.43070378617783334,0.46259449324099267,0.5154430815630513,0.6146756955078874,0.6908234080602709,0.6273381116294647,0.5251757336528518,0.45584164635998325,0.4072394711112217,0.3407783914268796,0.3681900358375727,0.38285012220475023,0.37477082399904793,0.37978992312363014,0.348133423232762,0.31428895144760016,0.3154866629386359,0.32883584211594563,0.3490165318437186,0.38107247123056576,0.3627698637418342,0.3626387750871811,0.3873257421413583,0.3524121715325692,0.3005600058336646,0.28310744093605633,0.3175031646277695,0.3858324266227613,0.4432991218247757,0.48040052396179656,0.5273701608331849,0.5920349908828264,0.5559382614822588,0.5027348304976056,0.426079983437488,0.37618570658502604,0.3879251107838577,0.41325362207238525,0.39074390551742333,0.3805006790669947,0.3675033680837987,0.33057809590118925,0.3299216633939457,0.3513676441881932,0.38833374555201194,0.3875203637073752,0.4125747460017686,0.4190880914028088,0.4354806243446898,0.41222599095419765,0.3524731353595514,0.2984079156254107,0.2924567107146747,0.3488713274280477,0.41850976727431144,0.46533046220158525,0.47893273986574414,0.5410138746520152,0.6414956608695763,0.673571754295569,0.5904761124829014,0.5399545630048346,0.47573131409680025,0.3930671414618536,0.3960900749005649,0.41892048544512406,0.4013179008047123,0.38085984733018163,0.34556663517736874,0.303798824913613,0.3134980213172178,0.31297393383938665,0.33488590948754116,0.3857904323637995,0.3874557840005761,0.39925292901589104,0.41108034126635573,0.3678372321451908,0.3200994108574111,0.2627264914040386,0.2743956648959891,0.3399336056051636,0.4059859051685475,PM
0.8421925486946623,0.8271042603570667,0.8032868885074681,0.8047401546276586,0.8268414821542814,0.822925978631781,0.8040000301278224,0.8018506240599647,0.7832982662420004,0.7868853968083703,0.7957441191668885,0.8029981198673112,0.8020370756342913,0.7757006241500769,0.7307146928441858,0.6799023414310666,0.6671298821600377,0.7118839627719559,0.7614165569323915,0.7936555757614295,0.8112328471131133,0.8099745463344384,0.7914094934489965,0.7580545989529556,0.713665026417157,0.6437794825786872,0.5703189335867075,0.4977734434360498,0.432937116050058,0.4033922872378525,0.46551191145073767,0.5389837840906001,0.6152436950288279,0.6896348849752721,0.7629650881533369,0.8181279263347173,0.8398720373759178,0.832535579599413,0.8141161358348855,0.8255818019503408,0.8302290871102146,0.8072943548741195,0.8119407703881608,0.8238751229164455,0.7909733815779968,0.7388393644387069,0.6960051731262388,0.6575280704852987,0.6780536177868629,0.7320260817244607,0.7835108318490315,0.8184731016435859,0.8152795646599865,0.7872673416975099,0.7793089484349748,0.7675093751353014,0.7357292652759829,0.6739612813455366,0.5943461566836453,0.5152996746884017,0.44190777507362344,0.36427805474428465,0.34137629766500266,0.4083569655437903,0.4825858778136499,0.5618598224549861,0.6353267460663744,0.7114298206260184,0.7809066025220411,0.8338519477935157,0.8419775430718112,0.8423736819575279,0.8196501519834357,0.8045365206130809,0.8241938885595667,0.8387410788210811,0.8332593147553392,0.8500343137660095,0.86818399910958,0.8705682588803357,0.8697569723855242,0.8369345892139958,0.7984446501822403,0.8213334329907528,0.8701795924536179,0.9200741981752937,0.9542918463896469,0.9819496390111243,0.9999999999999999,0.9780335421057712,0.9105982553011279,0.8397502060928704,0.7736685439309358,0.729483454476947,0.6809046851928685,0.6125329282707551,0.5365395055567356,0.46001069476854195,0.38500898003019934,0.3064649195291177,0.26676840945573355,0.3250140730156862,0.40196915998555094,0.4764849910995491,0.5535771252337068,0.6274795702172097,0.6992184809485936,0.7418168541121087,0.7265622864150586,0.6836076632021421,0.6525804403626813,0.6774557996062861,0.7018444627046935,0.708909424369662,0.7346529026487633,0.752205327155281,0.736401920911485,0.7317386769231423,0.7493563670963573,0.7510264838785817,0.724100555285525,0.711855247252866,0.6945472382830563,0.6918099003812702,0.7054371223034447,0.6850677275948437,0.6667250102071157,0.6540871228263937,0.6190219878497526,0.6143854891424955,0.6527359096167807,0.6901197343173341,0.6565685944468219,0.5787887494182312,0.5042397580356032,0.43049651044246817,0.36690109679416316,0.29466625058662477,0.21727099843307396,0.14324186518163862,0.06438135477997031,0.0,0.006088103979754678,0.07459087589896596,0.15041226290169563,0.2281187710957845,0.3021363285656299,0.382158658065335,0.4626362771806237,0.5415765373770328,0.6143808370131795,0.6756770016735069,0.7082427447785319,0.7666799131637584,0.8353155654684693,0.89763276286967,0.9498659003641649,0.9436020642462112,0.9289695625482793,0.896697552251209,0.8476080461358072,0.7955803385622809,0.75589588543644,0.7632504100096417,0.8048614467243832,0.8344272817823529,0.8312035347165191,0.8324799529966708,0.8121741004715005,0.7945162992097846,0.8022267532546979,0.790190663932281,0.7743076413631073,0.7768964011520739,0.8054117329506446,0.8075301893017709,0.7876713707159068,0.7308411772607065,0.6583619348177497,0.5802565009113411,0.5068944252760935,0.4287626575045377,0.3553893415918542,0.2772688140977343,0.203963099225294,0.13567716144232966,0.14256459597810378,0.21563406595688706,0.28932697264387264,0.36754007420650014,0.4448156271900491,0.51917026226242,0.5954380276334085,0.6680431789088831,0.7190509781823083,0.7378104763192946,0.7464665986108027,0.7746423912544674,0.7797160190562126,0.7355885457035548,0.6811242897589967,0.6273867516040571,0.6144637385933603,0.6527576313756521,0.7033478417816653,0.7582371819482029,0.7883892490004086,0.7725080667044516,0.7755979690923903,0.796134194463504,0.7814639472075983,0.7706837553462228,0.7941439012123267,0.8043243531122569,0.7721729492469397,0.7012144401595722,0.6233593546047663,0.5495402443287224,0.47363952358982175,0.3984661708818741,0.3202368182072527,0.2466083607329025,0.16771682037082847,0.10904266138481689,0.13073327645430044,0.199642524646647,0.27682850402196413,0.35038064820777126,0.42889723626532505,0.5093707512534197,0.589767170799714,0.664664499591371,0.7155683035623707,0.7529287314092975,0.7731382646584722,0.7640834428309243,0.7372763783062694,0.6919631889547025,0.6387438881168176,0.6203006774675269,0.6595337316513307,0.7104180915799948,0.753946373944674,0.771741430866547,0.7594299118945668,0.752466445427587,0.7488895663575618,0.7649862408688647,0.7655039690908457,0.7740656027864296,0.7856020331292694,0.7693285591662308,0.7685070985722863,0.7911645823483037,0.8081560044408002,PM
0.8388158897637557,0.825697344978084,0.7936433779211478,0.7472419696347516,0.7095968967092963,0.7250658976542266,0.7710544402288437,0.8174421825952287,0.8524519150107521,0.8695071387748048,0.8916479756821436,0.8856881771303724,0.8392101815409532,0.7805562900090572,0.6972759073964074,0.602130242918576,0.5027479585274037,0.5027283902476427,0.5999090527612523,0.6966954593295649,0.7964393551580449,0.8787909477246274,0.8853135104636867,0.8697850141574424,0.8454661271875741,0.7811529444094789,0.7742875967687011,0.8136104544494864,0.8483614203082033,0.8408618709547604,0.849288590560229,0.8539044851964095,0.8676244538132438,0.9051693408346548,0.9120763843730211,0.8974428620180295,0.8615569802424174,0.8219691537230063,0.7977845446191865,0.8356667955884294,0.8924128018291075,0.9437105180524885,0.9742357600266407,0.9942303092471267,0.9931796711637213,0.9962537858899607,0.9699706073280361,0.9071510626915484,0.826454366886012,0.7322970410978054,0.6339382149145434,0.5360364308662204,0.48660003827736964,0.565481214457318,0.6700044611119418,0.7661067288596655,0.8650821990131343,0.9448399519150759,0.9744698906827003,0.9477502173134347,0.8864301840997142,0.8115327591601502,0.7326657905381395,0.677333271828797,0.7118868154090323,0.753797001016445,0.7800195319246257,0.7807189428364356,0.7893587717214772,0.7795931564985088,0.7652609037587659,0.7798988316882112,0.7636335451004921,0.7611443077139206,0.8291837229929608,0.876283390345564,0.8634554805257617,0.9016888201594202,0.9484281854014693,0.9606133316902172,0.8976131188350818,0.8717530887258371,0.8806976333266097,0.873006893856991,0.8305672697652235,0.7690245891945164,0.6811712324452588,0.5847915361191169,0.4889211446495747,0.3900137335450933,0.38655822161586784,0.48357379080378204,0.5835137148925715,0.6815565938644486,0.7772601811162085,0.8595562016891185,0.8624281591991443,0.8223507007055535,0.7712965480751592,0.718587557607058,0.7358520586187256,0.7783472699728062,0.8066878009633791,0.8166205518569158,0.8134148724231627,0.8237170271455085,0.8364735212655388,0.82940344376935,0.8212669717456385,0.8153303142136645,0.7983109899625316,0.8301300081132521,0.8865203271795032,0.9353499457456913,0.9711483662559683,0.9917574644349412,1.0000000000000002,0.9958776732167245,0.9596329768380818,0.9036286508983256,0.9108433550540667,0.9380327094048073,0.948608100001531,0.9335176226099715,0.8989017366511882,0.8484844943400918,0.7976611231383866,0.7462836738674443,0.7381949144791651,0.7572587060992888,0.7745545207942162,0.7767131410046944,0.7768391851567482,0.7670985692349512,0.7597070259664391,0.759529703613125,0.7414432244955427,0.7186353412477755,0.672097127449913,0.6487223329472196,0.6849002909392479,0.7401983243734003,0.79134249353633,0.7888367644098937,0.7036515538717738,0.605685213991541,0.5089039678722893,0.40572363187236915,0.2987163661246315,0.1932906420837177,0.09955399226665707,0.03973855129326176,0.08794821184275525,0.1783567571972322,0.2584506530695163,0.361218205864712,0.46446828687247055,0.5611981833384132,0.658929138738434,0.743746492423939,0.8051372850409979,0.824914749080228,0.8160866600043344,0.8333065483168831,0.8805147869701011,0.865233695623121,0.8201190845861615,0.7839054541619179,0.7266351472793875,0.6915320497698871,0.7013445743537223,0.7134618370990389,0.7143983257287878,0.7280201391335026,0.7210646366914906,0.729219196491109,0.7172889004360374,0.6762978470683978,0.630351416289167,0.6206832576723345,0.681874240659561,0.7628681155628334,0.8438530779730742,0.9019138110135703,0.90845536638824,0.828577916423711,0.7297155935705841,0.6322457242465627,0.5299457373518142,0.42869652547236003,0.3321418348548879,0.23913446799028026,0.17118111543127257,0.17236318526427685,0.2566377838709313,0.3579623627214843,0.45585082107702735,0.5624479283145234,0.6687456628628057,0.7651511906952579,0.8518978221761586,0.9123966578462055,0.9304427291517501,0.9249693332063249,0.9209453619818568,0.903509486620852,0.8563353040503296,0.7999151830446956,0.7484145710905319,0.7347471405976391,0.7737665754758598,0.8115517288918273,0.8422319602930861,0.8504403212123719,0.8217470506196809,0.8007412908396245,0.7992240892736036,0.7881570516867622,0.7844361329681389,0.753485344715102,0.7179490746145352,0.7169097981020764,0.7690224738691269,0.801482416533587,0.7978626349238385,0.7388573313057212,0.6419413055979486,0.5459918224045353,0.44466964554738087,0.3477200071359676,0.24626329853099183,0.14850244644513166,0.049075836192272515,0.0,0.06866548808739092,0.16500768416245193,0.2676681781553276,0.3667013569984914,0.46749061603638276,0.5712495479960464,0.653720430532805,0.7336164334841231,0.7928731804406375,0.8315747005052032,0.825530201835454,0.8090497237469292,0.7763241568546231,0.7258284449832055,0.6767868858472335,0.6358128640728158,0.662505112681375,0.7078995948608375,0.7515471654045778,0.770789340899553,0.7783415439404056,PM
0.6942197707005793,0.6888442647480337,0.6591239257664983,0.6687874128172666,0.7453915495864138,0.821299354284144,0.8531513768035444,0.875152312781716,0.862328149214548,0.8734890597251947,0.8483411457864145,0.7837341436274818,0.6696481670282375,0.5338797517273246,0.3911710125960277,0.24980633047055978,0.17470501000246763,0.2759167234941895,0.41842831469731756,0.5611370486562337,0.6965572713164776,0.7943508841081788,0.8086008630536514,0.8111234562864764,0.7882947343525393,0.7136810022568034,0.6271197977802205,0.6102083312907238,0.661906899509161,0.7063117931966492,0.7169979868773955,0.7024816678263814,0.6807971949313081,0.7036696841609782,0.7809659168439227,0.8437362902418304,0.8486654519869985,0.8517539986208904,0.8582846114891698,0.855378514705194,0.8205233307926472,0.7312476410974988,0.6047470554852481,0.4666214722445674,0.32527672725225854,0.1957926791781528,0.19818776458088427,0.3356646123454263,0.4727719778232431,0.6153165189334855,0.7493867335753399,0.807824680448701,0.7893294956002377,0.775289998076071,0.7440927578776884,0.6627168917283983,0.5758951875455862,0.5474374881580015,0.6036076634445955,0.6409432672827275,0.6227614947712024,0.5728486817737517,0.5329473022467774,0.5000902080890004,0.5291089467274093,0.6085819625066176,0.6814064493605732,0.7227235206213538,0.7546008735731369,0.7814250104602758,0.8039646624467713,0.7986966441312826,0.7229898348872861,0.6090132960117143,0.47069777725528716,0.32815967593070683,0.19905121990652708,0.20106575458492104,0.338537929080895,0.47858880417777705,0.6213046906103066,0.7602093637073515,0.8756541322421576,0.9236173041069442,0.9574837006734,1.0,0.9729016307025766,0.8927809482205253,0.8099231528644588,0.7979082321171633,0.8010767614692997,0.740909081285996,0.6629699316194344,0.5724699693054474,0.45491123062352123,0.35260809436615137,0.2736415931354972,0.2888229468956176,0.37118869483504735,0.4667072491221167,0.5779275836016771,0.6782139261386777,0.7559526833352965,0.8266303418679213,0.8833237660350362,0.9208231129469553,0.9699523333726132,0.9936080138434749,0.9515033723587436,0.8559374660458454,0.7248354824172636,0.5884386189884796,0.4458182217478579,0.3214286811091256,0.36761543687938314,0.49905052785225434,0.6390610089016757,0.7798730596237791,0.8956134886235958,0.915560719807071,0.8841615921225436,0.8437645031709398,0.7934382842253642,0.7078397210297664,0.6209565403965507,0.5861373856783527,0.6530940512794752,0.7410971156751955,0.7852856363659093,0.8212216696706385,0.8058437540325909,0.6881567788829939,0.5711562559450858,0.4470478375167124,0.31483060468203616,0.19113191789763428,0.14771766150329801,0.237393858303506,0.3662832923185593,0.5048804543649399,0.6444820050442828,0.7801785522895641,0.8869719069309729,0.9029086906101176,0.86746033039568,0.8258519258342965,0.7707320120476426,0.7011240711932794,0.621830813123212,0.524080824615687,0.40884627200736645,0.3111409640679974,0.23039287638236017,0.18105524001430862,0.20557285293527272,0.2873600871031785,0.39683582919324545,0.5064745020893588,0.5999768502008305,0.6769884713726086,0.7171339248421034,0.6772821569309446,0.7182858160424499,0.8020740401352127,0.8842349686673208,0.8982708577171348,0.8674809827143966,0.812622398410737,0.6898995736706457,0.5474596910129947,0.4049878586890294,0.2697592490432288,0.13906527799423962,0.016369358002802592,0.0,0.09702691588644896,0.22544069518988463,0.3661256369958985,0.5068408717411654,0.6388340199114402,0.7348567674691946,0.7247840551108937,0.6958446921951151,0.6723223441479265,0.6463024846023946,0.5926865518399618,0.5072808512850875,0.43451359981931725,0.42704862949042166,0.45446428325746036,0.4954351436665938,0.5371874045041136,0.5525054401720331,0.5037486172033567,0.4305876616740347,0.45387259525213075,0.5325287704253299,0.6165410164393661,0.6813382313232061,0.7110649995836615,0.7147194138851183,0.6160178744544487,0.5011776334944624,0.3635255720775623,0.22994015475913798,0.1010180379415142,0.008037676252421022,0.051526425994665725,0.1650262550439323,0.3001783083959739,0.4398107974065133,0.5794295528406344,0.7110369676469532,0.7792114751764649,0.773311932759758,0.7724572206840112,0.7754320837222091,0.772478564008471,0.715975862927996,0.6340211951015373,0.5833811845109413,0.60356252663381,0.6359551843662201,0.6375943571447902,0.6161895308735685,0.5499108074755821,0.48737972684924413,0.5270745001720085,0.6092724871204642,0.691878027737284,0.730338439090652,0.7259364767666394,0.6479516636111744,0.5108347872783039,0.36807267243472674,0.22837734081558114,0.096992224037598,0.02397326097482022,0.09065019666211249,0.19383521477400212,0.3076056530834199,0.4476697067890374,0.5843062829636692,0.711959709535841,0.7741825049410518,0.7768664782112205,0.7726725102984937,0.7899271225106035,0.7558580065158385,0.6925386616990088,0.6045843788155647,0.5705966276049006,0.5900820490304288,0.604450771700968,0.6083395310149475,PM
