0,1,2,3,4,5,6,7,8,9,10,11,12,13,14,15,16,17,18,19,20,21,22,23,24,25,26,27,28,29,30,31,32,33,34,35,36,37,38,39,40,41,42,43,44,45,46,47,48,49,50,51,52,53,54,55,56,57,58,59,60,61,62,63,64,65,66,67,68,69,70,71,72,73,74,75,76,77,78,79,80,81,82,83,84,85,86,87,88,89,90,91,92,93,94,95,96,97,98,99,100,101,102,103,104,105,106,107,108,109,110,111,112,113,114,115,116,117,118,119,120,121,122,123,124,125,126,127,128,129,130,131,132,133,134,135,136,137,138,139,140,141,142,143,144,145,146,147,148,149,150,151,152,153,154,155,156,157,158,159,160,161,162,163,164,165,166,167,168,169,170,171,172,173,174,175,176,177,178,179,180,181,182,183,184,185,186,187,188,189,190,191,192,193,194,195,196,197,198,199,200,201,202,203,204,205,206,207,208,209,210,211,212,213,214,215,216,217,218,219,220,221,222,223,224,225,226,227,228,229,230,231,232,233,234,235,236,237,238,239,240,241,242,243,244,245,246,247,248,249,250,251,252,253,254,Target
0.5711860730470775,0.5824435168269531,0.5711829318142814,0.5611888724482179,0.5558986916159225,0.5498235107540783,0.5263860554225201,0.5003052678012112,0.5141435985114333,0.5396417857268856,0.5690812786161497,0.5473116198262475,0.47675193562075413,0.39333006202791476,0.3118082973591285,0.22464943788968283,0.14430300691320164,0.05767375366300742,0.0,0.036427551791893276,0.11702776762439493,0.20082697342658729,0.2904527092701139,0.37286932080096613,0.45770540376658997,0.5475897676454464,0.6230355511962371,0.6034342024380945,0.5548851709300495,0.5185830265700206,0.49373262978934407,0.4753582774658429,0.47555753783238663,0.4977144386298822,0.5430252973717111,0.5917054626279661,0.6273219852381728,0.6146770456982804,0.5745054388688116,0.5485179692066027,0.5422505912742588,0.5474575023632442,0.545574535909745,0.531243339104374,0.5163648894511332,0.4901644048806555,0.45464287072527765,0.4239829865601743,0.40908184645706935,0.41997855281909113,0.45400697749259966,0.5144828933106631,0.5788282682288186,0.6249496853492731,0.6006264608550331,0.5227468110054219,0.4387843381123193,0.3564725298344369,0.27146732486870695,0.1936615952571452,0.15976645926121047,0.21599402985853366,0.30300613323889714,0.3841219633434909,0.4705005516114784,0.5604103240872595,0.6450687618153437,0.7276517913394291,0.8133262960548164,0.828031869578701,0.7924246377342101,0.7946684871201926,0.8049555466588034,0.797382703811021,0.77929465847194,0.768620049588318,0.7890298409921168,0.7980212400848943,0.752942140981981,0.6995951176499926,0.6575346780458677,0.6183813472245119,0.6012887836936895,0.5968621891231158,0.5823248784475179,0.5806434927866426,0.568235926255489,0.5666893196640121,0.5484059142749775,0.5261241244630945,0.5321983907731511,0.5510071304912911,0.5805321201599491,0.569198704714329,0.49835377599622066,0.41818937607057327,0.33042129718764257,0.2502164348059308,0.1633330791204255,0.08593377325756557,0.052576053848672144,0.11084453848001452,0.19830244771470062,0.280766857603729,0.36554282993433485,0.4554834050243135,0.5451124970586243,0.626888366302855,0.704503825502427,0.6968967680217977,0.6370064382125709,0.6005694266789685,0.5872970367349677,0.5785634148412486,0.5823988172946206,0.586673612874302,0.6064409949501754,0.6218098843853237,0.6481275340306214,0.6347237160873849,0.604154056042139,0.5850716391937645,0.5742074308387564,0.5705644413664916,0.5679013804012756,0.5636582692648331,0.560297566679081,0.5442645973544928,0.5192718444330826,0.5109337004529018,0.5332073512724398,0.5643892173568898,0.5876152862024548,0.6267512963666653,0.6278243361864455,0.6120281898624216,0.5776198489481004,0.559462259683021,0.5732423707271603,0.5941231245363403,0.6044875107606915,0.6068713371630652,0.616720429619235,0.6190934380398281,0.6320771239600271,0.6552490182143298,0.6904268289398743,0.7034982997705359,0.6719017382837691,0.6462635343991787,0.6379371329960681,0.626578776561012,0.628527378186978,0.6367706149352268,0.6657633393803224,0.7288558227389823,0.7861293482744733,0.8524567450000953,0.8637897057905242,0.7977996458462122,0.7133414937483324,0.631870619606014,0.5423095226628083,0.45244660299538575,0.38573967805925036,0.4350864997856758,0.5149346841371429,0.5943933505180323,0.6472672130114969,0.6415694913689192,0.628558616244651,0.5958142653306628,0.5734389622389531,0.5722208908657185,0.5934958317896679,0.6071036566773997,0.6174243495878222,0.6256880500283579,0.6449407958722586,0.6455353828668333,0.6534575978978883,0.694535372174151,0.7383119461344123,0.7898831433653346,0.8367955839277623,0.8451746935469402,0.8221471452741291,0.821205804425577,0.8452228057968354,0.8570019785525174,0.8437207269304079,0.8392376471869094,0.8784931526751689,0.9507059907384268,0.9999999999999998,0.9653471038140842,0.8859401383238146,0.7964873751771753,0.7141242749878309,0.6292280813871904,0.5398096725467905,0.4906103414975924,0.5575361308947386,0.6382643800373422,0.7107903844375827,0.7210007117869541,0.6682106674017987,0.6096096968886406,0.5520239771385007,0.49169625939639006,0.4559564479585416,0.4554256737428297,0.4828939434924997,0.5150266786075723,0.542741762546467,0.5608666400380271,0.5740862783562994,0.5796391899185418,0.5886368136710647,0.5871950401256452,0.5900625265985482,0.6229995683102787,0.6629920859787222,0.6791329125018402,0.6491184172292199,0.6074011206298693,0.5590254460238049,0.5225265334845888,0.5170597055374151,0.528891838513238,0.5540685078039329,0.592602888873828,0.6499273446856135,0.7250396281148668,0.8000639400337282,0.8287253037748556,0.7699329012303118,0.6904807012409913,0.601715569256249,0.5121743194772874,0.4364268559526141,0.4455042582090383,0.5283631476556321,0.6008725316843282,0.620476379411812,0.6046616536649563,0.5818192291205271,0.552724122646161,0.5533475010261812,0.5816329394397226,0.5920170083374792,0.5951163878326942,0.6061401184719151,0.6167617491062194,0.6168417682401965,PM
0.6339033711478388,0.6654254587264115,0.6152919929434137,0.6058604008155939,0.5822588762334444,0.5798234265477697,0.5992029393755836,0.5769608634391368,0.5101056071178771,0.45987759779408144,0.4837232404189473,0.5795591930701063,0.6860359692968094,0.7526260953410064,0.7479283139889956,0.7357707891995497,0.6720166486223924,0.5673301285853647,0.4263863121659428,0.4107146325132316,0.5381580546759643,0.6541954626157445,0.5696090796511832,0.41348366072239173,0.26413655226717214,0.14328208712041768,0.08264263554858786,0.02660741392283761,0.0,0.04001705155840796,0.12063534224293804,0.21643848851713354,0.3315061395418324,0.45979627016488145,0.5724944022392426,0.6445441075648386,0.6564394490266094,0.6357824689464016,0.6402877000725606,0.6555188813855697,0.6177151262391822,0.5536623084852854,0.49356698563268786,0.5185492255113981,0.5989276880767118,0.7189462518904168,0.7682046445887156,0.7945021594211843,0.7882344788332691,0.6859156115600138,0.5306997090534589,0.4005677861490584,0.38133200839495185,0.5307876285054265,0.6910609183778229,0.6742167686918803,0.5093233415479519,0.3835461685089765,0.2978083307590529,0.24579316028297704,0.21299511417851846,0.2114215164311224,0.24404644427337807,0.3347448596758742,0.4439462772459093,0.5713559424759946,0.6828649114122802,0.7742389774187401,0.769063664183987,0.720032496669476,0.6843639266180377,0.6586630362332704,0.6525995446503536,0.5996112412268575,0.5130474650118346,0.4384331071404972,0.4334263824541864,0.5026395496976699,0.6124294098954408,0.6659836243652135,0.7000737147199905,0.7159056850611636,0.6849838736633727,0.5610619116248703,0.433863355415121,0.34040289069507246,0.4101964178737916,0.5804975966694892,0.6334240867112912,0.5068898936580473,0.3571181361575171,0.2430768953988851,0.16523471720273708,0.12157882268550146,0.10100192981172551,0.1265924908322935,0.21061355781822844,0.31391315390810437,0.4300387889646675,0.5512037814462056,0.6621817592262325,0.6810608580727511,0.626535449047517,0.5915696392323246,0.5875637659568858,0.5868858700976887,0.5537656608139674,0.4780043321767957,0.4222047603511827,0.44972813653126664,0.5205187390075432,0.6497843874465303,0.6995668954056278,0.7325492089701786,0.7434636375776309,0.671380034447,0.535835040198088,0.4520774214813601,0.48142880491404494,0.63870494570057,0.6966042880354637,0.5631324843847896,0.4114160221407248,0.298259103698185,0.23023295461493376,0.20516641336225305,0.21938975325380294,0.28413072685019625,0.31932238493072695,0.3598662605148988,0.4586325517914229,0.6083803077939924,0.754841076522772,0.8734629333546824,0.8782867797760687,0.7403184192374299,0.6817457008511267,0.8125608078770012,0.9497655020709654,0.9087779630439465,0.8470996330269704,0.8291152363876018,0.780272970143634,0.7172181281717078,0.6024168323125334,0.5383619981157945,0.5723013619484325,0.6419006102503175,0.6703459749918839,0.671164309108935,0.6744900314816853,0.7043667754403273,0.7606148683721132,0.8057568009069476,0.7682928541428806,0.6686224648293839,0.5498547864984324,0.43342607512138986,0.31732740663034864,0.2251566824021367,0.20244017297836425,0.2389505162385639,0.29131177226662697,0.3914168313576205,0.5534901546862114,0.6990615273806764,0.8126081020152851,0.8205102553943107,0.665945942684619,0.5856527116631387,0.7091712882256216,0.8629399662442001,0.9249738245690988,0.8437755516466297,0.8101412805965422,0.7852614834558809,0.7382742062584517,0.6599453530675641,0.5680503742196281,0.5741749519806278,0.6502277351635986,0.7236735471105318,0.7418414656764938,0.7655596473067421,0.7895272420982868,0.8406047525027347,0.8780195838519287,0.8708512593544775,0.8015776350784849,0.6830363369448458,0.5608253354999908,0.4507661317205054,0.3600488875591079,0.3119409894493117,0.3248015697953335,0.3759998816778758,0.4698235387979173,0.6057892358352577,0.7567493132510599,0.8823762451077188,0.8862982854172934,0.7465428871236934,0.6468865332565237,0.7616571392011791,0.9365904043135469,1.0,0.9289689366954832,0.8946239272757515,0.8711260964234411,0.8275106955443929,0.7314995772060948,0.6372094861795894,0.6436725543264696,0.6985618877045114,0.7393779004949685,0.7574624316709846,0.7508571212461082,0.7408970620314399,0.7407972381281134,0.7291603654486414,0.640955107814241,0.5366208739483795,0.4158688964284254,0.3075648887665796,0.1949286560836283,0.1275463093290865,0.13763475881569498,0.18431434090756937,0.2571126196931157,0.40438773197025313,0.5672534719090461,0.7134695214817661,0.848424774705073,0.9596065331421846,0.8942207876961499,0.7239392702242649,0.5878906824142129,0.6646956297823037,0.8247527535593555,0.8911254710160366,0.8560060078098513,0.8735992868495508,0.8486973372795825,0.8011258501823653,0.7044495239894619,0.6027993908126366,0.5947724757390391,0.6624407690305505,0.7301869977108586,0.7094344316425998,0.6933060436860297,0.7180179766893975,0.7445445676156668,0.7836501074996018,0.8047429120964518,PM
0.11019246929457482,0.144452445471281,0.12351564942201398,0.12669988732476445,0.15085023877240844,0.16556223151904326,0.16592989823478987,0.1440659450116646,0.1496334320753998,0.2077944990081917,0.23941593382291426,0.2762024173951978,0.35776432904319777,0.45455147885256064,0.5526714148113385,0.6498604402153352,0.7406503832579452,0.7399630011070781,0.6453277365638148,0.5417411604876614,0.44437881624511544,0.34980077095122586,0.2585763021388059,0.17281542088215684,0.1838659861788028,0.280580024674018,0.37937885135471383,0.45632651741688024,0.42117691306590865,0.35740840648906325,0.33678792080058817,0.33086413302691864,0.34423281700604336,0.3974825086498144,0.47018597221466196,0.5464977426416038,0.6240555658634404,0.659918277369848,0.594047689222952,0.510635467186261,0.43051665190546373,0.3597897976175195,0.3080718737193673,0.2845758545925108,0.29919697835247394,0.3005372602159506,0.26987329566924134,0.23253642242038497,0.18153317522390444,0.128831915890248,0.102004267185275,0.096605971028624,0.12815712009641578,0.2141617279934369,0.31156444501111547,0.4099720413452552,0.4977017475751506,0.4845438826895643,0.385041044721425,0.2840151037746186,0.1860044823688647,0.08321998543867704,0.0,0.01502975014934993,0.10945075406584559,0.2112612876796618,0.2491880848773782,0.17661314914452242,0.0975011857049024,0.05183285052546083,0.03377094136617598,0.06328364819859233,0.14208509223246013,0.21323713884073414,0.27584601157799904,0.34912918081427,0.42632744960214275,0.5061201324662628,0.5909256356529988,0.6388975926437841,0.5872702531194052,0.5058513239553559,0.42301010413065154,0.3496507868728913,0.30337086113869005,0.2956975947094058,0.3309011605497223,0.37921717681799616,0.42083008240192976,0.4515297127525466,0.42853625302596243,0.38571536853043376,0.39253906637564673,0.4200934800465459,0.40430249893681514,0.4512974447688569,0.5438433300573922,0.6407364171716801,0.7376026803784572,0.8348858982299567,0.8405294651737434,0.745227954737292,0.6475364992354691,0.5461116902510923,0.44227557455628563,0.3460336927058505,0.2976066793302603,0.36585261290809057,0.4655384856681912,0.5361303286569747,0.48235663878935187,0.394940155119734,0.3252239367173737,0.26535231279747706,0.21977007248598768,0.19668947850989604,0.21190585337908296,0.27104276862669163,0.342526952753895,0.4247943947677808,0.5051266640497512,0.5465843823855845,0.4847251934858334,0.3997203941791949,0.32364452587950066,0.266795377306815,0.2537765498178941,0.27916651307365004,0.30958441984647056,0.3157284587104041,0.28842958693786835,0.2903472283438693,0.34795699646308,0.4221049605616731,0.5054318379818787,0.5859869047130151,0.5954295326988401,0.5252225375722717,0.44309635064058495,0.36431232537839264,0.29186621795455414,0.23573027139246316,0.2399759399317407,0.277345866597829,0.33687352749232136,0.406530485657254,0.493897258433005,0.5862109186072373,0.6812932855378102,0.7788665008204265,0.8676420804335032,0.8571103176158121,0.7997124467383683,0.8627177026851152,0.9566298616175779,0.9999999999999998,0.9341428402146137,0.8475516289435274,0.7492650728973616,0.6518372325867241,0.554029212523675,0.46622351312280563,0.45667607914552577,0.459504305788635,0.4204895905122512,0.43887871249253974,0.48007628160023885,0.4759553095412101,0.4374777777555996,0.39406239956352684,0.344703878949161,0.33538187478566805,0.38304227391504764,0.4561224666131112,0.5416933810704745,0.6268207864532565,0.694347861081259,0.6746474734519265,0.5980486422204638,0.5175028094352754,0.43708693998572756,0.3575987750211047,0.28488393470017415,0.22555721212255708,0.14955167883154985,0.07693320263346437,0.07951236383331084,0.13073569831058784,0.20899054046790333,0.3011091487682549,0.40240993794377244,0.4988885292253471,0.5787853817773605,0.5625596146270124,0.5703175614285074,0.6482562518618866,0.6518966645516069,0.575536176185957,0.4883800761056172,0.39274614786887985,0.296283210511155,0.1991591992689683,0.13649446345530758,0.1368532181509512,0.16466034799977192,0.21662907538440668,0.2658292303191456,0.3010850990792857,0.33257787171908904,0.336152007596922,0.31916389434617454,0.34206779871217297,0.3965936649096782,0.47435415305530926,0.5559802294567973,0.6287542845651777,0.7020343005874767,0.7114104548557239,0.6439934418060529,0.5647527497799927,0.4847781695303208,0.41276090160225243,0.3664361063294508,0.3637242468228188,0.36803990218917937,0.4208226279201306,0.5073017701340659,0.6007408963654304,0.6947213872900515,0.7611897087205641,0.7177240339904836,0.6622545501911401,0.734791409667465,0.8378277847615261,0.9123565208856121,0.8761740446082797,0.7914799604870033,0.6995627365554911,0.6024420910643158,0.5037592086350275,0.4041606964479365,0.3099462189384041,0.2668288094105764,0.23224471126611235,0.1819958662084864,0.18858352205930928,0.19992819085823332,0.2222940282653414,0.2025126164389659,0.19359216496425002,0.2064742155253385,0.20000943787458225,0.24427675198193577,0.26457352905517184,0.2172157638753207,PM
0.25298333056865996,0.2916693228932328,0.3633341806393089,0.3878753824322234,0.40522198444536395,0.43586558476100823,0.4246146706551892,0.3779214368610928,0.3486797927004597,0.31821626258582825,0.35036038131163716,0.3789853010852564,0.34756110151089414,0.32010257454524016,0.3098154745623045,0.300157378715328,0.30950501950836484,0.35197781962659835,0.39613727510971897,0.3997763282345139,0.37927998619808845,0.34117278408863205,0.3149794514970028,0.28360220905566136,0.24463355685220178,0.2153247462606418,0.2566799153068009,0.3375438653273286,0.4239622823132341,0.517034473376754,0.6069087072033179,0.6980242568460922,0.7835978804458157,0.8629276429432928,0.9115346473502841,0.8946229392581349,0.8317863809990391,0.738946896413629,0.6428537429362313,0.5546553262822673,0.45981495040321807,0.3724548962604719,0.29339568081206124,0.2751732763396151,0.3463296893000254,0.4418660824291418,0.529972999090556,0.6271116688026805,0.7249551141366757,0.8137675353685547,0.8973000287803821,0.8995664175215681,0.8612843588660803,0.8247494985849215,0.7958947032513835,0.7843181251457634,0.7853978814761131,0.7967069390588777,0.8205988694760196,0.8164135522122806,0.7667599658400315,0.7151800112049722,0.688301160238225,0.6775409302807627,0.6765001392239536,0.6628713877998949,0.6358034851546015,0.6206024182186818,0.6113373584306867,0.6256389125074922,0.6347166820120713,0.6243324200000324,0.5900572941805002,0.5671005262919517,0.570934127490712,0.5987271164908621,0.5767774441720706,0.49393583733932234,0.40402166884677726,0.3110382783975756,0.22085817969170374,0.12555268515358575,0.06355041093246183,0.0928540382644889,0.17680702049434793,0.27444746873966586,0.36825705289183386,0.458023857847047,0.5561359281740277,0.6490972733309879,0.703600872842522,0.6738548190422957,0.6437889033044555,0.6352169438683122,0.6365594625613515,0.6548773975294857,0.6944487004186382,0.7340811314539901,0.7613814762527351,0.7380339003602749,0.704018191416008,0.6889280266655633,0.6767535745238926,0.6612312275679622,0.6497096136620275,0.6527941098923686,0.64988664152024,0.6462976288717064,0.6360478423044609,0.6332904425007908,0.5978952334664851,0.5445894342091671,0.5241917801007934,0.5281584477479004,0.5451922360370443,0.5048166417457067,0.4210410535122877,0.3328303020035963,0.23876876214633724,0.14989892617086298,0.06164215527590766,0.0,0.024204542789941774,0.1097749067690359,0.202351159615606,0.30026424126009554,0.38484422292669684,0.45136999394784016,0.5171264153142632,0.5827972342132797,0.60966672203083,0.5946073054069827,0.5758193245042875,0.576628404539115,0.6102052861170861,0.6202950034031725,0.626152725788347,0.6423864741490974,0.660305908907385,0.6620913344976112,0.5961658177446392,0.5035855748582398,0.41510941124630785,0.31959140983848333,0.232801701364993,0.2600701464189821,0.35409697869748813,0.4414889665697235,0.5260754953777154,0.593506414880165,0.598948067825988,0.575322518297738,0.5638764957941063,0.5752101532524709,0.626115319635351,0.671308939370586,0.6709778379144851,0.6768558306728449,0.6826082898180874,0.6892056983785038,0.6963715033604734,0.698739812197942,0.7098379088891282,0.7209807696886328,0.7325544663290762,0.7679518733579309,0.8016094422104776,0.796695248488763,0.7627565735948112,0.7215068444970392,0.6864505385887174,0.6735487062791625,0.6737407468267405,0.6825666396916916,0.7208311090220221,0.7591608541982549,0.7637600948552654,0.6936782582301282,0.6039364321742142,0.5094999876900057,0.42046450182398853,0.3253331079695121,0.30466356384311477,0.3833389096250204,0.4772431118350027,0.5652444807312977,0.6502322153012776,0.6706387731485459,0.6394478789350111,0.6164553771119543,0.6221478184282514,0.6552063388058502,0.6803628382237723,0.6804405384717951,0.6650819729318194,0.6552153799626623,0.666076478163272,0.6943266984898706,0.7115012019637867,0.7229078975154191,0.7251797000552416,0.7423047704625092,0.7899974330586317,0.8467314875472365,0.8738597745698318,0.8604179517801267,0.8347319044048738,0.8300745365746618,0.8390853889137992,0.8626605099177631,0.8990055583243381,0.9390654020481608,0.9813619182630382,1.0,0.9298916168648317,0.8417962807338988,0.7470376843229216,0.649195732016246,0.5649727749395987,0.5642397532984522,0.6488500506836132,0.7405617556572373,0.8264817441240031,0.8973818342093791,0.9432212569501277,0.9580801726815915,0.9250986322917161,0.8655651106399933,0.7848738507245963,0.6962765690747434,0.6059717275785461,0.513855809174979,0.4248182841213959,0.33732496504503384,0.28592463017763103,0.313794691385882,0.3456747942102645,0.3697913258479284,0.4061310898345849,0.43384177400170687,0.4438861155263427,0.42725530581846227,0.37978547181099476,0.3415921715228789,0.34610325655317586,0.35100168231606643,0.37704577009873086,0.41700891663303175,0.46661398972565626,0.5070728276342837,0.4984230790159936,0.4631928770933724,0.4823885004356594,0.48593702946779027,0.43903654484240606,PM
0.49565862651860293,0.6110989118166188,0.7357450802774324,0.8542711686825424,0.8467592399339772,0.7377073743665461,0.6184051094566105,0.4967564358072889,0.3928616735856436,0.3017438939566679,0.22931570061064388,0.18742301615249923,0.16371573347998192,0.16704845724612838,0.16617276103848377,0.15595283356979106,0.12611175545098652,0.07568966176718073,0.038112134367922934,0.07949401798039935,0.1481494141369355,0.15997983829908424,0.24117689923925711,0.37487571823393573,0.5172422502418241,0.6544707068652906,0.7123100296608107,0.6087628133925227,0.4634577915663187,0.3199039487068984,0.187557532528138,0.08967638592819771,0.033596675496336825,0.0,0.023989809497318326,0.08473111986042348,0.18064682414216637,0.29204349444527233,0.4080375382071342,0.5299397213577732,0.6539200376369569,0.7723353838410203,0.824291334761766,0.7355506151149815,0.6181411225864957,0.5028739680961998,0.3864623745655975,0.29160207661038307,0.2210737336501225,0.17898221364034628,0.1553617999445991,0.1540889292523926,0.1386834492888922,0.12486122655657539,0.11197864001359559,0.07398416839624389,0.014181166629194664,0.01750306335247176,0.0820697949925715,0.12418211362564113,0.14371046738380233,0.25991019815595084,0.40386520145669813,0.5476759878662594,0.674522374136632,0.666322818470058,0.530774193153253,0.39153009107511494,0.2667617518107446,0.16129655787050057,0.06693179975644581,0.019787239930003864,0.016202931895090256,0.055533912510373984,0.13136350940333585,0.23037292946555787,0.34706954454135364,0.467353909665869,0.5881601390870816,0.709237608102042,0.811885760286716,0.7880677607484583,0.6786806356787896,0.5655943257671687,0.45710831938275387,0.35169685666619444,0.27067144466334847,0.21339922041568338,0.18601476587851806,0.18331828857305776,0.18619695643376133,0.17110124583468078,0.1383176732894409,0.07785449738002992,0.03630911399717984,0.07627024153515594,0.15022079985204506,0.17477434890139687,0.2545623158083874,0.39120037898374926,0.5370147742285192,0.6724905650918918,0.6883664311942321,0.5614233880176962,0.4235515545194981,0.2869300897733713,0.17332870262639766,0.08982996897287787,0.04916009746040606,0.0467858545867843,0.07697389026942636,0.1529994891045292,0.2451914875455401,0.3585746199514399,0.48193824473878166,0.6128425044921717,0.7277371851261951,0.7735037468867669,0.6785543915990404,0.5571846642864666,0.447152676450536,0.3511398417729712,0.26818951791492296,0.21457082184211584,0.21802548695044166,0.27547297474938937,0.3312263632585952,0.42313386075522974,0.5282387197218288,0.6390085721932612,0.7537202459376608,0.8496923204504023,0.8432616833286355,0.7380253986330785,0.6134605316312709,0.4912494082184282,0.37325261362247497,0.2657430218551502,0.1677785201667965,0.10712075006617594,0.10608686796725708,0.1543857626042464,0.2537394807120257,0.38178933652006286,0.5194051348310222,0.6592841140555241,0.8020619144424774,0.8871057647137714,0.8181729219473182,0.7192508534756774,0.5855113104500962,0.4400983965518024,0.3035978792667944,0.23510035445701627,0.19607816835885483,0.11365626209642832,0.10940297714711766,0.17730244470459722,0.22729659447732153,0.2385179389775418,0.23811889614654325,0.24583307873867932,0.2528697414504464,0.29080773118323267,0.35855636988202644,0.44920617988503864,0.5639114595927315,0.6790888494004377,0.7942948609775722,0.8905698492153533,0.9026344303321068,0.8079523092531917,0.6898244369009516,0.5689498599407643,0.43865769193918336,0.32123861657703223,0.21790792961201078,0.12672820795049988,0.07296581778870248,0.07649433607102019,0.13502956262468313,0.24205671891051406,0.37507254433078385,0.5278106150692303,0.6703111487810789,0.8138837579228788,0.9087225421629626,0.8522562103909457,0.7453652166147462,0.6100879091032954,0.46387632507537546,0.3454057929939691,0.23280772090200452,0.19138571979180208,0.1405368781440255,0.0795112077689284,0.11220697773678356,0.16143600103012457,0.1780045978987661,0.19377572129455212,0.2134491745838143,0.21737810449036976,0.23506898772427798,0.28314933582580215,0.36641266490544755,0.46977159821695835,0.5827065486852354,0.7083715656700766,0.8220725514610394,0.9106484466128144,0.9119173338500635,0.8110056903407439,0.6930132838351191,0.571039937056498,0.44856965837453266,0.3215518306343985,0.21195199401014797,0.1229828328880771,0.0719335012936635,0.08231150770184925,0.1441330428353682,0.24796425021522817,0.3778365812711719,0.5174561163757132,0.6628150456903836,0.8056562125054776,0.9547784210047543,1.0,0.8920632289890689,0.7879446179788574,0.6612909498603927,0.5163167523268108,0.361502730512544,0.24010027254906108,0.21824150023237898,0.19176379374948826,0.11603293893519462,0.1148013220860995,0.17301971990491927,0.2082863761355136,0.22193597841609192,0.2218183012472954,0.23523114032489945,0.24294634141889615,0.26460036937731557,0.3153615828317369,0.4037233469978334,0.5038571159121878,0.6129076489796277,0.7356467962354531,0.8588672160067863,0.9569817354894923,0.9557916628512424,0.855506605429269,0.744166219575646,PM
0.10050591872432424,0.10916997182060761,0.07918698096712129,0.032029299173641945,0.0,0.036252118901280106,0.09155988356630207,0.13112382298885894,0.15170553549360166,0.14803443585689946,0.10482403250589023,0.06395112129076219,0.12833828530643654,0.23076158058612162,0.32754129645768026,0.38252871934501176,0.4865737632253597,0.5933236940887165,0.6539028591903819,0.5735338060821662,0.47020158311597626,0.3716793486349399,0.2791715502831189,0.20202713575550924,0.139749726949161,0.11435865298335957,0.11329866966542568,0.11330211875402751,0.11495894585535149,0.12239667772939189,0.11553706289476384,0.08387797819018239,0.07289996606452975,0.08379076753822945,0.09276200151738978,0.09404533907705526,0.10878371122495212,0.11339798355639674,0.12173169355425939,0.1252827552869964,0.13249113004062485,0.11613099175237895,0.06594379720569554,0.01564834524092351,0.0010683286627393151,0.043906739448752674,0.08808751518755953,0.12348896689297995,0.12847016442338388,0.122074095621175,0.07979886372966627,0.0733201594891355,0.15861697771253747,0.2631187171567566,0.33706348289088384,0.38055841136217117,0.4748022962950489,0.5889685776970031,0.6823909130194732,0.6557141785208094,0.5516075731758114,0.4455441455071827,0.3475125864896076,0.25795309844298764,0.18256424238113977,0.1357400304511307,0.11429216357720762,0.11329860602249298,0.1135170436089541,0.12385813587761163,0.1301700288642289,0.10964202262648515,0.0940223910364133,0.10556736315827031,0.1273030833591804,0.1256517629970073,0.12963020135034853,0.12478422774901565,0.11494013010469528,0.11340002375627956,0.12192924765484481,0.1321676724439329,0.10726260939023913,0.0650527098589393,0.035894930512020196,0.059342145700619575,0.08881835581818232,0.12646888276654433,0.13164024361099402,0.121862367553212,0.08584788272570831,0.047460759570457256,0.10275921386252973,0.21795159519095897,0.3232693525944641,0.37432564699371085,0.4578849954236133,0.5631800403167664,0.671762569407107,0.728289866493578,0.6460077271458031,0.5406028337430198,0.4309475850369835,0.3190423497036172,0.2382711799003907,0.17228704992669197,0.1294224914791946,0.11366565225324798,0.11329813402997413,0.11352759009652358,0.12399810366588548,0.12732573629768318,0.10225205770785806,0.0933174214060064,0.10501262107000908,0.11320182890360586,0.11329810035666377,0.11330206495114625,0.11563340901311658,0.13118372104364573,0.1309215397003758,0.11392339215769631,0.08396241654348024,0.03542060907875788,0.03449359574905886,0.09547225022314265,0.14375301058071388,0.16690278248634938,0.1817315220242257,0.18268043628454977,0.1820921610647237,0.16894987003292794,0.1623227857355083,0.16227216320126736,0.16048323712789125,0.14546666176265033,0.15756999167560437,0.1800316592411515,0.18147569959970866,0.16997361920564957,0.17718075360035135,0.16370182975199166,0.1723499927421588,0.21744320941859652,0.2862210623160255,0.3746636879264513,0.4744433071993579,0.5772251828123216,0.6830575212875862,0.7878769936560137,0.905131909570259,0.9915443289587644,0.9831649282845154,0.8944444889351617,0.7886349743365648,0.6755450976563826,0.5702383543796246,0.47741667054978487,0.42580391315878563,0.3473850662580138,0.24288355189722166,0.17940928970196834,0.18235713883486548,0.18265552152267617,0.1760926077872358,0.1417164172320433,0.108741317619931,0.10927539036415412,0.15711657917357513,0.1806734184021943,0.18267828117172735,0.1826810353591113,0.1826810353591113,0.1826810353591113,0.1826810353591113,0.18267314756461017,0.1792412546296398,0.1560243587291592,0.15747449957708248,0.1798629341590705,0.18266170926643,0.17873016241411666,0.16358086850944353,0.16279625860699198,0.18064386366556695,0.22427855571341926,0.2924367350976418,0.39010368902172976,0.4997478158996893,0.606968564968811,0.7082918315378968,0.7886600749179697,0.885601208628902,0.9808904560945289,1.0,0.9164269128101772,0.813237670641271,0.7263996973676772,0.6320088599335709,0.5303208447429419,0.4706547827094152,0.3765737270704834,0.2712902714964973,0.20052653131139309,0.20271702446437523,0.20007955890918172,0.1791237592645274,0.1410952995084549,0.09701775097208865,0.07529256339320023,0.1223190913737735,0.16840392417839523,0.18249458191021928,0.1826810353591113,0.18262398556287662,0.1758938696896668,0.16267405608311325,0.15326153763957917,0.1421373600481668,0.14186790481149236,0.14284706198171415,0.16315370256970674,0.18195867695839896,0.181806131291542,0.16746131780729723,0.16230289841103085,0.1646593810642094,0.19479474229438054,0.264637963748084,0.35451119054708213,0.45081254436516804,0.5536080831689545,0.6613019547597099,0.7650530532608797,0.8756152159796224,0.9660540438988727,0.9740988637912347,0.8808768754196894,0.77260873899673,0.6647450600896612,0.5548192370998586,0.47181356617141423,0.4094883153294675,0.31351163429055484,0.21587943026859113,0.19999543514049867,0.20307384009137452,0.2016165313723417,0.17644134095635078,0.13169383503073773,0.09459043171501946,0.1192354270678071,0.15734799692389867,0.1796508920546107,0.16579000596302995,PM
0.4073253980685849,0.4400496874707329,0.4684518412800851,0.5128909753022928,0.5222687253391989,0.48949608625712937,0.4534901685597048,0.4204319700248882,0.4123125378274821,0.41185742615264953,0.4029496811243485,0.35962213691722233,0.32571748430552994,0.34217916652062685,0.38118764706395236,0.40585980682662903,0.405596140796872,0.4549444434174572,0.4344214077088999,0.3351810263889865,0.26749264657502536,0.32288174723103324,0.42552442913769184,0.5385155096778536,0.6134798286453123,0.5529642319512416,0.46508990915610005,0.39850487334272255,0.3776413465360564,0.378724437392437,0.3914186373994659,0.42114149310362237,0.4591346302116519,0.5070576692338835,0.5390367108014402,0.5160135327408444,0.47086153179988655,0.4402036417793358,0.4322826173401948,0.4416924287408728,0.43493635273146936,0.4032000546175136,0.3539999460601648,0.34933600201084003,0.3853166094593474,0.41376093309342554,0.41834568014471385,0.4495749321536384,0.37688521485391346,0.2724283678348356,0.1611933869897073,0.07862988429207363,0.1085589477412432,0.2190617644548274,0.33079608274538375,0.4365377888028532,0.5459567327067556,0.5509151775193168,0.47173969014809947,0.406231901036596,0.36924268867467935,0.3651310619971988,0.38898450862757494,0.4132761929924649,0.46185199201269667,0.5137173515522648,0.5356574194724679,0.5080144239363475,0.4632246853571851,0.4285526694816335,0.41984039484634783,0.42066290762132263,0.4257203068792781,0.3912033362345837,0.3516106884538428,0.343535813454495,0.38001265376212734,0.41622718087762545,0.4192716023907357,0.4330253321224151,0.3606642436126557,0.25859309355856164,0.1435926084257919,0.04031717716525529,0.0,0.07907570403265085,0.1876715317890323,0.2953142231136283,0.4118166856760883,0.4970637435521734,0.45930036268643226,0.4115599824094218,0.4108003090453658,0.4176775308917611,0.43645011028315217,0.4733403942893317,0.5271482907349645,0.5803411332833748,0.58108281074266,0.5388521360541811,0.49617339563177554,0.46537428763695265,0.45044672042026423,0.4350379017425978,0.4428785234699526,0.4198983014758162,0.38025293963104145,0.3824899292315429,0.4159668565277146,0.44617196498608,0.45009294543617173,0.45745804851699035,0.3613137987032302,0.25615696466404847,0.15243189649253663,0.1263931950263486,0.20829327486480764,0.3222446240842305,0.4277802171052749,0.5386627838383053,0.5933821614746724,0.5142767915025788,0.4285075508154814,0.39513090119774086,0.40295687290540894,0.41495209864944105,0.4446675817261343,0.47237652164979327,0.5237346498451192,0.5577571438571778,0.5209694040530115,0.48902895254060885,0.46677766206607396,0.4501129297280779,0.47207999041560944,0.5575189652541943,0.6600147429371792,0.7738013733930691,0.8902771495356276,0.9861733703530517,1.0,0.9072297923309933,0.8034602211902757,0.6889072996807535,0.5807257402341044,0.57306779881965,0.5726635844342725,0.5133474064309751,0.4940569686233185,0.4634916252653465,0.4357802578394825,0.463930076031037,0.4910590341259655,0.49914531501118775,0.5017048994696269,0.5227269781257182,0.5683460125574298,0.6096490152534186,0.6457476348286719,0.6401159354088963,0.5949735276024306,0.5421352868615816,0.4946587473658921,0.47249976916343916,0.4736992174029018,0.48391867215331086,0.5556700362539182,0.6557295058335426,0.7583090949836748,0.8560490907487837,0.8785925396665317,0.7894337058325989,0.6751450289987404,0.5713072264611414,0.48427520068953145,0.5309529789020759,0.567627952984588,0.5064480562511378,0.47452694174647947,0.46615313971013306,0.4175207394881659,0.4022070464487859,0.4422651017700887,0.4796768727067291,0.4910905103905705,0.4766173478901834,0.47523179420347317,0.5006102842083506,0.5453482044798381,0.578448731751696,0.5822916367129647,0.5517873980280261,0.4972456807839616,0.4536954213432689,0.43806373051565917,0.4312549526373264,0.4613726767084314,0.5353299127158926,0.6261761146783726,0.727453038228207,0.8252792440401673,0.88466164243134,0.8195055577501176,0.7117414034405205,0.6036650147237723,0.517826411725423,0.560474811096741,0.5622017405945474,0.4969231060479484,0.46447319531949827,0.44130114662665987,0.40739899769282495,0.42796334841291106,0.46841735682463037,0.50362939000967,0.49517524996582507,0.493270050298221,0.5026452681559537,0.529422950010952,0.5746100067233058,0.5946889369918833,0.5803496693206127,0.5350523983626392,0.4907082803045748,0.4581178753333335,0.43915139034113526,0.44028424016580603,0.44749847969503964,0.5222838540027346,0.619778568769521,0.7222978566935923,0.8272436813964328,0.9230879409019166,0.9498876202221043,0.8675042790162406,0.7566761292532829,0.6539082719254665,0.6015097689594939,0.5281876289623071,0.4719506857352993,0.45678795989815946,0.41259802529512823,0.3887703876357196,0.42233559511323415,0.46459787337122727,0.4710429128777429,0.46701080087797076,0.4890474707231274,0.5196771109719509,0.5575575435081195,0.5802455620112243,0.5777379782757754,0.5422415419647937,0.5061138720395828,0.4784171288414889,PM
0.0657948598205853,0.15110150167182002,0.2557304008692567,0.33565396738964126,0.4152845982202935,0.4856544193811616,0.530980735733904,0.5364161141948696,0.49339257989926155,0.5671827588461476,0.6718930384090198,0.6954798277718184,0.631349081895924,0.5871270328295481,0.5580193526056636,0.5515858748921971,0.554617118995512,0.5504174864631524,0.5972370767605564,0.657668693378155,0.723448541461845,0.7598992684604662,0.7212296145666057,0.6886423965135586,0.6705578514692347,0.6617958699581958,0.6652123125387122,0.6727655843963207,0.6828423293453927,0.6932450868411961,0.6793468036853447,0.5895338269126742,0.4846471500220213,0.38638984764190987,0.2795640577364049,0.17680406887887856,0.07743055341052174,0.0,0.036257258336024556,0.13744572177301095,0.23624358935337408,0.34378070606904654,0.45139418553201116,0.550348489080148,0.650787427993281,0.6694261577606939,0.6016762786110257,0.5537944207301493,0.5344123841032808,0.5394300480012277,0.5477331559800298,0.5846724463585162,0.6432958666874726,0.7109402413385393,0.7218806954782369,0.6960356681225739,0.673359104770765,0.6705749238622647,0.6767418635532967,0.6721010109482743,0.6727063076754343,0.6854138556101899,0.6920869517699169,0.6936250647301065,0.6956507568640848,0.7064678083822495,0.7181060417285003,0.7320692340723696,0.7163583509448648,0.6396521537929405,0.5415533059355013,0.4373610735362212,0.3290405581853839,0.22073320004021757,0.11794090348203401,0.060846105765471004,0.11557483980264438,0.2140287284220348,0.3220193574187111,0.4268383077954976,0.5258333506912036,0.6335067871091971,0.7402832441251523,0.782899572636734,0.7103441099415142,0.6445495457581458,0.5997729503832527,0.5829228282953385,0.5971419667371114,0.5958572192507376,0.627677279921186,0.6886038039792557,0.7341675731559794,0.7085672671439371,0.6828835725756113,0.671159131879719,0.6657061787576986,0.6785821049210035,0.7009175630809255,0.7103903689581146,0.6500590977908591,0.5522126181010032,0.4541759455930392,0.3472875258331882,0.24314684747126258,0.14447312982918392,0.06682572402299325,0.10438452949809762,0.20148570581202008,0.30194609745798506,0.385672027095461,0.4598243295316453,0.5606344560169858,0.6412904352082638,0.6156391613214836,0.5732052945419248,0.5418897332427419,0.5414557672390896,0.553551203237193,0.5936118898144751,0.6537972174429241,0.712026708360562,0.7334899754559103,0.7062711394819954,0.683928325337007,0.6660977690838679,0.6743419076395676,0.6831601315149709,0.6935489423669319,0.6869568136009985,0.701115722427224,0.6642613915795144,0.5698939623626353,0.5211811154717969,0.6022916184752987,0.7024179223791451,0.7948410411592692,0.8035003061126824,0.7452098372070721,0.7318598087774069,0.7288525956289051,0.7137985347795097,0.7119562963632049,0.7316497735667213,0.7538134302118489,0.7882131191432635,0.7695863770192557,0.7120534829310405,0.6508601680864645,0.5994099749248187,0.5832231264126304,0.6000963388149829,0.6378820591627297,0.7059078588015275,0.7965908865965177,0.8712820450433556,0.8526898798820004,0.7597995767791681,0.6519313215456815,0.5441883348491321,0.4815042366433575,0.5514016977019716,0.6504240258208651,0.7431097305283028,0.8011153743485102,0.771014767839767,0.7415054284916227,0.7147065372109647,0.7051651524047107,0.7152360476853565,0.7282718447457137,0.7627409348247429,0.7765548466164982,0.7324270807138769,0.6678134119019523,0.64167862355617,0.6349917937735703,0.6307851894769785,0.6682307536292749,0.7246102938718608,0.8097185977149257,0.9141058276433323,1.0,0.9954849216109598,0.902851753477294,0.803442688117602,0.6956643947773942,0.5988430440193797,0.6095183027086732,0.7030167954679634,0.792562050500262,0.8073613375682362,0.7736950138099763,0.7542890369217701,0.7452959812033302,0.7374039024769976,0.7318403870647523,0.7297897541692326,0.7194116041303098,0.7059481573879389,0.7109536264452228,0.7208918046308943,0.711327827339113,0.7234378005457263,0.7434207582618537,0.7763159789295253,0.7648626635944504,0.7063137998887212,0.6384770456199602,0.5920342975801423,0.5797794148470858,0.5833668829066507,0.6244192841959597,0.7009178160891807,0.7929628799409438,0.8880866342991021,0.9474634855338748,0.8931237320412877,0.7954546810690495,0.6877663098908573,0.5794065023797472,0.4710464169605246,0.36424093864670803,0.32291780176632967,0.41321910544078966,0.5147481663833293,0.6154974625074323,0.7126888476417275,0.7920594983215743,0.7825253966025794,0.7336678408459005,0.7149697681851048,0.7074275403899568,0.7024481061005288,0.705451343883365,0.7252099870830775,0.7489836949355948,0.7948879298321145,0.8148882123126406,0.7666710589115184,0.7007273120630941,0.6351249923910918,0.5987129554903232,0.6136034245166484,0.6147413151039394,0.6328256348698726,0.6882703304397455,0.7743606205703464,0.8671679810788975,0.9494361764523731,0.9303793322924196,0.8311493767067097,0.7328820749345795,0.6260396074205214,0.5258255276596429,PM
0.09444739597048102,0.07462874266760444,0.21793091154539201,0.4006676812327026,0.48656568896650576,0.38095341872637256,0.27716691938990756,0.1936219559763792,0.13244667757959672,0.09351337731562825,0.05555798885658003,0.05093293237482044,0.04579967514348482,0.0718399501346152,0.021998064641622683,0.008940437875913254,0.001543625513088287,0.002032594062804982,0.0844967721915264,0.16148239275810816,0.2307266994469641,0.29009399398987856,0.3016121882908944,0.3053135739882542,0.25609404489966536,0.2487863043198253,0.2339707543502536,0.1765669666967753,0.11485287456191795,0.12806491079823168,0.21989682789891507,0.32196755405912825,0.3569594086433838,0.34939627499936865,0.22405063196516295,0.16247313120690965,0.2831151915283865,0.46001391292725646,0.6201447536886286,0.6854177615817054,0.5628631624598581,0.4538801368542442,0.35568834159353724,0.27469339492804146,0.20629718189641366,0.16241905359596043,0.12265006365842002,0.09487709806886002,0.07300589060192308,0.07996552814486702,0.11818451913159311,0.1866334466118822,0.2550262797281535,0.2772199121844583,0.2543042484159814,0.23540179641744796,0.24378279810393622,0.25248561954392645,0.2553100980384517,0.19885463184371854,0.11983128421398082,0.05846677518234156,0.10709043614707703,0.19010650803434803,0.28546045036716894,0.30670230556267697,0.34394904546239147,0.24026666104102468,0.2517387009638199,0.4003267283726588,0.5702375952620509,0.661116174641875,0.5626759358262525,0.45180722449506217,0.3661994208873205,0.3157269556469524,0.24283440099529852,0.19642356994918497,0.12669497112797945,0.0681311127498363,0.02275439718779282,0.0,0.029437662751895743,0.09459486510275816,0.1769438249143258,0.21566656219122038,0.2057868767332547,0.1841162857995995,0.21174326302317414,0.23811268962392695,0.2672223259514288,0.23919046349925832,0.17401199565134462,0.11287102423267736,0.13709458520698803,0.24420948853421276,0.3689189628113212,0.38233466693352725,0.3376870341804734,0.2299207156649805,0.2491299723821978,0.3874831848385991,0.5216202072316793,0.6394131331733615,0.571352838738374,0.4535700238307392,0.38336303226236357,0.312151586915574,0.2660305001730201,0.21731793996631144,0.17611346502823544,0.10356285948128452,0.05358733590966924,0.06369598374422214,0.10101110981937023,0.1571853257392366,0.22050943436279447,0.2816267588319734,0.29992607468164767,0.3072911268488179,0.30967299123399616,0.35655638216689844,0.34440791917800784,0.2940091194252137,0.21072624819963526,0.14008461594711363,0.15329482427683772,0.24662726915093192,0.34395014130098645,0.35785529815671957,0.4390749653969639,0.5417428163457378,0.48504201475518904,0.44697022792933083,0.35890853640780307,0.26323437346548406,0.2783610315498901,0.354790071800708,0.4300425373618655,0.4546793286599833,0.46332949278175395,0.42563703825056187,0.4306466846921335,0.43207534114718715,0.36919833837440663,0.31595248003867393,0.24129809071718267,0.1968105910844553,0.16841582367522356,0.2260842690262992,0.2955141906622476,0.3378700274795019,0.37465926966890173,0.421065235020361,0.5042125444192074,0.5831761206147474,0.7178347935664657,0.8791417270123603,1.0,0.9864795322196258,0.846928867383963,0.6993418242616087,0.6090625812115142,0.5327939403105963,0.5118477150902292,0.4138831637077578,0.29344626871925783,0.2634851330740018,0.31033871522872847,0.3576565732051833,0.3783383858084646,0.3533384336280214,0.3280519690915602,0.3078719248427886,0.3322473960919954,0.3273635385628024,0.27227481237300566,0.18076257692128284,0.1181283240179436,0.1263197900039481,0.18009399677046467,0.23554393932372086,0.3050934554476852,0.3641424946558711,0.41776753516594756,0.47647362580431096,0.576521970502677,0.7156494344101274,0.8657215428698573,0.9590149666299403,0.890366454377717,0.7354275470458989,0.6743073724136179,0.6256231085812658,0.48537851560256673,0.4114920950518579,0.38920673808148276,0.28648495468945967,0.2016503340289404,0.24311587130581458,0.30935931054899957,0.3644548710879416,0.3667125547641179,0.35978381782666613,0.3645138236118868,0.3877609872263523,0.3840131664676907,0.34015687259065075,0.2743223160954251,0.21432727734808932,0.18033626430948324,0.20692016339690422,0.24915178366396606,0.2727931783956574,0.3134786954674471,0.38402966614294876,0.4667317039531431,0.5783783894049339,0.7188387684693174,0.8719142556092425,0.9960091649202205,0.9863644304649934,0.8294430288865078,0.6831612880025277,0.6048493048078996,0.5124701090673529,0.49149112033698206,0.4192819414082747,0.3116745036758015,0.2230801187364948,0.24742655256556212,0.296194490428789,0.3419728036482219,0.3637343571715901,0.39490748681533727,0.4197978526754875,0.4117726028391342,0.37018217771971074,0.29342126487175335,0.23163597680199288,0.14474936740162914,0.10240771291530937,0.11360787214577961,0.14330348492561384,0.18559421618031813,0.2281790845694589,0.2559267928143898,0.33386442202494493,0.43791282103181306,0.5767513496212802,0.7294532533606803,0.8273649462959263,0.7590026383900037,0.6070751465871416,0.4877628844019988,PM
0.6131007187542187,0.5617693220663336,0.5130190558017526,0.46399915799211133,0.4079020085224172,0.3514769068611774,0.2978057493961627,0.24380447790216625,0.187348358755832,0.13083108404621635,0.07473078782428981,0.023055085861176508,0.0,0.0408350943458131,0.09681658505221018,0.1533332455927432,0.2094518433202362,0.26211385690388433,0.317378066726505,0.3738876007804329,0.4304054641568693,0.4869187209035013,0.5424755957372238,0.5950018414512305,0.6507701120574455,0.6921448758830349,0.7036896254279157,0.7445466617064415,0.7955549213889689,0.837247477539958,0.8166991105557504,0.7820112046919039,0.759544082679529,0.7468981555858395,0.7496406008955012,0.7622321859378733,0.7878847799309839,0.8205193439330326,0.8568460682409956,0.8583417457492207,0.819711973193305,0.782096435699886,0.7548415472040291,0.7506349844076561,0.7579755207634528,0.7713234042138887,0.7898345478253196,0.7882801066822033,0.7863761985666463,0.7751155113420006,0.7680021313385582,0.7711240303509072,0.777334701153683,0.7710052531589893,0.7705062151012507,0.768740457437287,0.7584980611132351,0.7116105368606831,0.6577817396434434,0.6043557899159531,0.5479643895780096,0.4919412717816851,0.43936854252866553,0.3839217746871253,0.327409664129367,0.27091472067128064,0.2162019885722894,0.16326142307363684,0.11158489830478067,0.06142164237031998,0.020165199131944825,0.04106092827113532,0.09225214447484568,0.1483792300479943,0.20489659275211397,0.2614144561285503,0.31792634321431446,0.37336003332901996,0.42593844382298107,0.4819691399615682,0.5384861408664018,0.5950040042428382,0.6515218676192748,0.7080397309957112,0.7645562845319759,0.8201545823257462,0.8578476040966855,0.840581246452647,0.8167134580122539,0.8145786023814235,0.827238056581335,0.8342124321809905,0.8473764230255202,0.8696284173643046,0.866433915573305,0.8337918854513625,0.798453073351314,0.7777326082246058,0.7705646608126596,0.7676767813896644,0.759756870934232,0.757910494859684,0.759580285565523,0.7562023269417639,0.756266736102889,0.7580176513711578,0.7685507463027155,0.7839105606520393,0.7786254126821329,0.7343065151863585,0.6804740779007515,0.6279572910428948,0.5720018101226193,0.5155031948617718,0.460655651965584,0.40771743441365704,0.35144912868548794,0.2949313799732894,0.23861036992920143,0.18550904393855705,0.13087907645031827,0.07705476463831794,0.060547820978269065,0.10507235846611883,0.1581773185931895,0.21265256164330054,0.2691391411306136,0.32565700450704993,0.3821748678834852,0.4386927312599215,0.49508954807799077,0.5467029933183426,0.5974255321541403,0.6537289224704417,0.7102000332007151,0.7644081464560623,0.8178838026904313,0.8724250880236263,0.8861915863390397,0.8538620856624566,0.8340140862542038,0.8194697741415031,0.8090545265820869,0.8007436509937685,0.8182921219791567,0.8502207045620344,0.8727277642906768,0.847789006535374,0.8133975378676812,0.7879634188705427,0.7702881938770452,0.7757587991875861,0.7903603016960982,0.79731315576536,0.8199202923357151,0.8526723331257767,0.8877375247272288,0.8941186869425328,0.8643254493321795,0.8325678978424683,0.8221971701127283,0.8332076448864468,0.8434428710002512,0.8565553875508658,0.8874567196430172,0.9342753194137516,0.9832540104252478,1.0,0.9553214316716336,0.9028941881289447,0.8476296083075462,0.7948515007961374,0.7398685158019004,0.68758919151405,0.6376851626907118,0.5852194891322409,0.553095566271927,0.5915571900436507,0.6473042045486944,0.6997857940950195,0.753146049675419,0.7973507842072437,0.8073467087392893,0.7957950142667832,0.7791941766707519,0.7742637987123313,0.7747103889635756,0.7741400065281544,0.7739355504292141,0.7748726880389016,0.7791098763796472,0.7860888700175982,0.789789940222709,0.8062081710335925,0.8415982913976606,0.8771147872533579,0.8981480213005635,0.8829079724430147,0.8584382118096342,0.8488392461856702,0.8415662303682488,0.8325743566116358,0.8499371944816169,0.8938343555826382,0.94302657582537,0.9740349566643627,0.941602252432012,0.8890320842046497,0.8349160150198388,0.7790228856794305,0.7264929126081408,0.6709266700277688,0.6144139657881732,0.5595783369033311,0.5448033471927053,0.5927496741714493,0.648771935891727,0.7013155965879941,0.7530351410528947,0.785286667874324,0.7871854647219978,0.7890277055472883,0.7867058220084794,0.7922262717924192,0.7882810318675977,0.7842734562801456,0.7957867651633533,0.8038182731028887,0.810456871276227,0.8059485962894292,0.7868106234503459,0.7752748614401134,0.7670629846843273,0.7706477280485079,0.7994925143830375,0.8371235846654141,0.8759422005218392,0.8905969406628491,0.8652982388186791,0.8294977371831711,0.7973099962649015,0.7732688431176041,0.7668175448209007,0.7793420779078579,0.803770851493332,0.8446835265439234,0.8945725057303362,0.9410489552549712,0.93831111726174,0.8899637990773392,0.8361361521589666,0.7827095506157922,0.7295104177247675,0.7132695437944934,0.7521941255572591,PM
0.9009364295855262,0.8877417025393894,0.869685408471583,0.8480535417774187,0.8565589956195245,0.8935082688179377,0.9072908392602745,0.8870950228975736,0.8126629445509705,0.7287438587417712,0.6417799969700553,0.5552364868206976,0.4701658272459648,0.37983939889008833,0.28931995440534686,0.20278494787869783,0.16671991449521428,0.22779500742841985,0.3161227325831004,0.3995780021370463,0.48851274761017827,0.5761854442640759,0.6603476918820399,0.7491092086193814,0.8323178823247799,0.9001794782546659,0.8948217345997891,0.8738464070126009,0.8479062840503544,0.8359262091590691,0.859571635104363,0.8961810677520663,0.8986490952131596,0.8872521513084914,0.8721772523813875,0.8482799656786724,0.8445251330791619,0.8732624311234625,0.9018198852908959,0.9025060171161228,0.8458424634409931,0.7647102442216254,0.6756392895812875,0.5911030925775198,0.5039060102999784,0.41423803062228615,0.330682951896176,0.24228805231418182,0.15919442843252707,0.12167562404609644,0.18410384324339524,0.25809905533379274,0.33024800266850396,0.4027060972670178,0.47682786686086054,0.5617641882245341,0.6518224894425477,0.7363567113517135,0.8232807496281285,0.9010948163872694,0.9087692940939784,0.8803207864001512,0.8526108635825447,0.8315260631691501,0.8502894175294453,0.8878037448763432,0.8864574034451627,0.8569986676148218,0.8278727447713474,0.7925510240398435,0.7562825635455599,0.7389501944790973,0.7630228706665334,0.7876704010195539,0.8014526094114689,0.7618311397060813,0.6739720277713179,0.5901192443781667,0.5022858629644285,0.417664854107493,0.33058074196332154,0.24038251438499647,0.15584965007234208,0.08417236265425276,0.10501733567064031,0.18438374310978256,0.27248250705763855,0.35953934666406906,0.4441866717537566,0.53425921180423,0.6196513354324085,0.7059025284110718,0.7963099040286405,0.877793391659137,0.8944237819874852,0.8761573364926025,0.8563593244963019,0.8456490480399455,0.8690602983322202,0.9073092896090482,0.9098600777862205,0.8976050494836736,0.8750626388072851,0.8434217588336681,0.8346147536442805,0.8500629397889896,0.8482402515759342,0.8119874504916258,0.7415090556155788,0.6580304355467848,0.5873953136339911,0.5043518868727443,0.4209854421903101,0.3318964435472931,0.24366134141763263,0.1599428593688006,0.07869777693385793,0.0755509209681664,0.15210563868378835,0.23901442988856836,0.3233591613046565,0.4131257966737849,0.49739212065813554,0.5849191968570773,0.6733501601169984,0.7560863050748998,0.8067294114632482,0.7729491802705544,0.7279504170234732,0.6825694773656512,0.6241233435634834,0.5801089947466853,0.5351333405963374,0.5039714140537908,0.4606482339056781,0.40650196123340265,0.3451419691033615,0.2869927883582015,0.22832666752006303,0.16785384119337732,0.10392081375663254,0.04249139277606273,0.0,0.03262477881079617,0.09409873824280279,0.15617528445865214,0.21633854780079864,0.2787325983918787,0.33474371498194944,0.39366576539634757,0.45531715113399374,0.5082218933802223,0.5426797082613446,0.5757916742917575,0.6216762069530875,0.6728042607106359,0.7272279101232277,0.7671923699728154,0.8155712699671296,0.8673926409110524,0.865497523272519,0.7917488156882921,0.7083377118872012,0.6184683389146735,0.5306309682900525,0.5083416249945085,0.5863918759756468,0.6717343076757605,0.7555031610091398,0.8266685788065582,0.869241683804113,0.8799727155559192,0.8703098825247022,0.873777420402895,0.9056899841545276,0.9247910515598712,0.9375104263768845,0.9419250545231994,0.9079140988931864,0.8790163384906373,0.8934913595085792,0.9119698100248943,0.9346667056486351,0.9524738842940983,0.8936433979630873,0.8098846281897867,0.7220311733035383,0.6381922002096703,0.5482697897815514,0.4663974623065381,0.47618206980649425,0.559628077207805,0.645619371466907,0.7304319383895186,0.8106894452794198,0.8491844254050491,0.8242975773427765,0.807224103022425,0.7779176175186757,0.7837832389688317,0.819103829139165,0.8545305116643125,0.8819287210853706,0.9133424005232769,0.9314506561388776,0.9029955844813549,0.8667077900684652,0.8710907771011536,0.9002729157678682,0.9266678984902623,0.9759155541403162,1.0,0.9402926872491697,0.8562969633513242,0.7693598958080976,0.6848283748315849,0.5956771019737661,0.5550081822038895,0.6261585856564067,0.7099906273581769,0.7956722009062336,0.8752652444215034,0.930328813842169,0.9316029691782741,0.913572220000548,0.8843102886699228,0.8856096008751082,0.9043822744248267,0.913789030692133,0.9323601196129674,0.9347268353898552,0.9093290737382669,0.8698063898996862,0.8760584368437754,0.9031141789455202,0.9225700486205641,0.9622457776610907,0.9602790586725567,0.8843551255820223,0.803421819036036,0.730019895638335,0.6626545332391487,0.6026668527618297,0.6082679918678606,0.6903437471405602,0.7776110154799527,0.8615458782113443,0.9312606214363466,0.9376704556100568,0.9267994567941151,0.8969699472736039,0.8804906884746868,0.8990731791979087,0.9159394544070316,0.9320756114349364,PM
0.055042798957998684,0.08284486051989448,0.11245731029460304,0.11397960503692306,0.14324258361926923,0.1905588273065686,0.2416386917814891,0.295961272492124,0.3466638223990063,0.40011142497901286,0.45247450766383335,0.5040679039077484,0.5587804581417705,0.6109113549732131,0.6627312722430446,0.7175357582653982,0.7717175235689303,0.8222174316509329,0.874868743809628,0.8893725067712394,0.8413923156240651,0.7891715981142052,0.7374570349121264,0.6830601757508478,0.6323487354025249,0.5791369981184163,0.5282249344728759,0.47524763640821444,0.42405729375152623,0.3716262932964812,0.3209330707673671,0.26939401155364895,0.22115466546719065,0.17895443238182496,0.16110788542824594,0.15025978560170083,0.11612544543981007,0.09460471069868859,0.08378125694863814,0.10595033450137337,0.1271204629132111,0.10473564164206917,0.06878081729766328,0.03285453739126287,0.0008466381123644062,0.0009219999553538027,0.03268762231873934,0.07069038024398089,0.11258796109496305,0.14806646424302117,0.16516531609862117,0.17790128515422599,0.19291143910827835,0.18842783897261695,0.17051216027494076,0.1612642191904865,0.16783458752358416,0.18027083928679066,0.18862012006053752,0.1876475843776434,0.191712516957791,0.19365565233791637,0.19424610494678096,0.1848761393701247,0.18376846002181424,0.17594025718363748,0.13829082644616053,0.13864503767248293,0.18361469869761726,0.23778829871220386,0.2926836962633751,0.3470732394552235,0.39765935652556805,0.4513495536506583,0.5039670317219266,0.5553313902753326,0.6100711386766923,0.6646667602088864,0.7155455368000246,0.7687780243884857,0.8230802791065598,0.872650502712811,0.8914192870087269,0.8494770454887565,0.7962009405141942,0.7450564725358025,0.7013469593746294,0.6505286776854345,0.5999987339640566,0.5460073024611148,0.4952511004842942,0.44198585493211573,0.3905762626641419,0.338015185426363,0.2833427060585584,0.23251014574151607,0.18754322361216924,0.1581107843157672,0.1348006040651487,0.10181279956531519,0.0643617324098521,0.02300944767715707,0.0,0.02108402141779553,0.06141558884804066,0.10130718900751645,0.14052774252287425,0.17487082228466955,0.1943146032006703,0.1997121094369314,0.18358340858565703,0.17582361765125076,0.1784648193161391,0.18082571349170162,0.18822906356437663,0.1922422041172398,0.19058311195372768,0.1967148020223164,0.20383639387247865,0.19886787895067626,0.19241107598104357,0.18893523246075217,0.19337240975610714,0.192600800022929,0.19244227779308276,0.19244862671527363,0.19379907658375894,0.20436956577791232,0.20924187922312643,0.19972092266133146,0.18752217542579186,0.15535791870161975,0.13429283219021837,0.163869770761356,0.21341186129603917,0.26673183718469395,0.31867509950617323,0.37067200435235004,0.4253882872257583,0.4771073941335092,0.5293444470331087,0.5839527764001599,0.6349977270762012,0.68800345009168,0.7428805753055413,0.7977785149018931,0.8525751167436205,0.8937285472777067,0.8683610477776772,0.818740164671577,0.7670243127858624,0.7135629375426972,0.6628943826245849,0.6084726901256673,0.5561323756619302,0.5046268539593651,0.45413215936855533,0.4111276867764956,0.3696968703828608,0.3213746383631727,0.27102321314582467,0.22220786375005386,0.17853631888606036,0.14690165824517065,0.12047799387906422,0.08907779289785078,0.05325841235668283,0.024589135793437245,0.04576320491316965,0.08455744092610507,0.11681409530746956,0.14607594604883167,0.17419467635150132,0.2104777616140373,0.2560618032905987,0.30859749445188334,0.36261234333918047,0.413070068260604,0.46489513041549413,0.5163073977156415,0.5703342663095557,0.6208176673426696,0.6747936801937379,0.7269562765089369,0.7787064393544411,0.8311320352099149,0.8806156629488541,0.9289995570868584,0.9779591102039992,0.9992203814189345,0.9616035587387307,0.9103340831800842,0.8560867237838169,0.805507405711226,0.75176982338551,0.6971186969791602,0.6460906453626009,0.5930617700383166,0.5383657004001293,0.48710269156674635,0.43437498874468095,0.3812247839307602,0.3303127493137926,0.27585644155176603,0.22693381208280616,0.2079698879396502,0.21563566264337575,0.22634835123977604,0.22872134637939212,0.21484597269602412,0.2082218384819411,0.2068535368299268,0.20750539481732788,0.2116923796579956,0.20894317379203386,0.20958429683428204,0.21547836818832422,0.21869209360330755,0.21578301865542326,0.2081851087728629,0.20678488189671018,0.20342924667262663,0.19616284874410606,0.19711060195924524,0.19318783184093558,0.2055025273916531,0.21774212548528682,0.21171992116382576,0.19357271905719364,0.16299563879184753,0.12521665559982986,0.08309452975200593,0.04285683528761319,0.029135929549129802,0.06265336553751177,0.10366149816030934,0.13848178147293344,0.16419599452955136,0.1904507461898407,0.23389296207717225,0.2831531528907415,0.3338397307243094,0.3863169602744666,0.43747517790739854,0.4900699154609366,0.5411125282149277,0.5940919453489849,0.6489681548473126,0.7038652505931534,0.758228833422287,0.8087921828383023,0.8619433262842612,0.9111006456220084,0.9591798340916055,0.9999999999999999,PM
0.7353132363303123,0.7373636714435066,0.7383594396160169,0.7345365502479895,0.7260950747248527,0.7155332058099406,0.7110130620333099,0.6933037624889475,0.6744002166622387,0.678000826889996,0.7003027229815693,0.7056651149006627,0.686423070129877,0.6289895058535242,0.5622454894180582,0.4995641705642817,0.4333603730979837,0.37067428543883374,0.3038179790837796,0.2408394778439097,0.17519762310138742,0.11369016051353031,0.08276042647832005,0.12620389119809905,0.1913543203894068,0.25759478160701865,0.32066147321104743,0.3884700785574027,0.45670227281632214,0.5249348296649785,0.5931673865136347,0.661261347871092,0.7254125470240937,0.790252545451583,0.8416266783029003,0.8125282971967651,0.7617953972768439,0.7296237891215915,0.7258351354273309,0.7197119358981714,0.7073554356374026,0.7006854651046752,0.7075785120239888,0.7019152829130841,0.7032075082887399,0.7079044216255115,0.7121016891939713,0.7119683682096123,0.7112969543006695,0.7123276999541639,0.7091472829987728,0.7064724595616028,0.6913382771511398,0.6813618152653895,0.7003697520760845,0.7194962881515223,0.7203107615221935,0.6898886418505057,0.6298354355819382,0.5667811642705385,0.5031917643206678,0.4382913563397415,0.37501782063517297,0.3091093998446136,0.2426621249650508,0.17971773204849095,0.11198430539777138,0.045467137514898726,0.016502650482306924,0.06346179031792565,0.12590356604690867,0.1934474248857636,0.25820974529041074,0.3225447718826243,0.3906631170131917,0.45885327301552903,0.5242340724388308,0.5880001973097759,0.6560350029671531,0.7242669901795256,0.791999466845918,0.852847208141476,0.8669003622886997,0.8126482517462257,0.7667668130357184,0.7473102990716971,0.7494973983975095,0.7473762994033777,0.747376362862898,0.7505787004008333,0.7491584828518596,0.7286281550669764,0.7246831361255293,0.7286902313939256,0.732052493419477,0.7289740480121891,0.7159460596593925,0.706366806743765,0.7059992764870555,0.7028245791742991,0.6861820688288065,0.6805011598435435,0.7009330909634492,0.7239832805795352,0.723900257763525,0.6834064154020665,0.6229978928414226,0.558287159493343,0.49558476481250247,0.42843131965619174,0.36527051495123863,0.2991590801865962,0.23288502469590122,0.16983306693946232,0.1020233713741655,0.0347533360430724,0.0,0.04437944033657559,0.10677713439275704,0.173260360937602,0.2409566160076465,0.3038713397486852,0.370399715660793,0.43862077776229325,0.5062993171030086,0.5691832728101731,0.6357707586031232,0.7039931910496717,0.7718617583253722,0.8311678601623846,0.833692620707297,0.7855406835653225,0.760645872823114,0.7708168784912992,0.7996576293631239,0.848844636947945,0.9078743395779703,0.9692629592823689,1.0000000000000002,0.9575327211420939,0.8937024728054448,0.8294543148624307,0.7613478937070639,0.6931536336995154,0.6276810956223504,0.5639978599099245,0.49597600775310346,0.4277439005338868,0.3599750872733265,0.2980778210638211,0.27433094047109174,0.3311030327028719,0.3982904581657214,0.4609617117681656,0.5281982377032894,0.5962872403084634,0.6602918115667498,0.7190858404981735,0.7494625313661556,0.7471132551760997,0.7366575347778224,0.7122328030232563,0.711367523592759,0.7270788324917423,0.7319397320558361,0.7350669147181841,0.7454064311107891,0.7539973156445501,0.7523643981231323,0.7511528117605173,0.7513171660376106,0.7713272282508303,0.7794488453185711,0.7721146068878704,0.7741664355274298,0.7749260814900574,0.7739104542336359,0.7837130831577821,0.8259790194145333,0.882526347308269,0.9425395702483461,0.9914395839673806,0.968210150497044,0.90443636311319,0.8431936969681657,0.7889332446958395,0.734861242706129,0.6811003357207728,0.6214869467674466,0.5550673013123542,0.4868467169149684,0.4186251904932893,0.3521376325476272,0.29845671371818305,0.3188246442170478,0.3839835562781473,0.44681432186328895,0.5144429994392612,0.5825899626258995,0.6472475676307974,0.706961102025049,0.7399567489495062,0.7473510943354447,0.7461004997433289,0.7297617308424618,0.7076768013913228,0.7152530334035103,0.7321574919906757,0.7325699258728366,0.7330741154676015,0.7350618433074341,0.734608296347957,0.7358226803618657,0.7345590176571424,0.725233080655658,0.7221045196796048,0.7329779892045656,0.7284643564322215,0.7264648466356782,0.7405468833635538,0.7470028281575682,0.7543472459670928,0.7920382082233923,0.8474452905981507,0.9063394499851716,0.946691947355782,0.9152017729554904,0.8496124196791184,0.7850532826799119,0.7205232009116034,0.6523892147428321,0.5842599414015013,0.5197633866637961,0.4551573975836112,0.38708210690207046,0.3311307641323744,0.35736159110381327,0.4228475424168687,0.48563126190908634,0.5496811166394606,0.611873702436935,0.6728829056685239,0.7168270800116898,0.7269716005242779,0.7244661245631632,0.7062143732795365,0.7025253780278524,0.7207647209716106,0.732567314492361,0.7386371041615829,0.7490121906402012,0.7550404652730944,0.76033991810156,0.7571974637513987,0.7546640291140045,PM
0.0,0.04493921078668639,0.12360671384448962,0.17581983177068738,0.12556547682567465,0.055417012474039185,0.008668125586486441,0.03472507290255389,0.1065326582121442,0.1918047966085472,0.2902542021653429,0.37037268708221016,0.46249596927878067,0.566798755290246,0.6625392724600869,0.727936807602543,0.6660209466531273,0.5738842109676863,0.48494760776704804,0.40180579793531046,0.3339397912141948,0.30083426891756804,0.27830413424372336,0.25706246503617947,0.22801986703248445,0.2074765837626329,0.22975801891018421,0.2811828601418307,0.302375648686114,0.3114608156976464,0.3063669937280993,0.3058722030901493,0.3045015454536879,0.30570559360796534,0.2864084911646356,0.26278364680905875,0.256238306545866,0.2838801360801353,0.322350215207041,0.33678317886566567,0.3072908220111994,0.22769852161400572,0.2165311745153049,0.29897775835551266,0.39257073856203495,0.4895954773990929,0.586545575463598,0.6891085153412486,0.7653131460414964,0.7289811677783462,0.6364750929688185,0.5441165632260068,0.45701855552343473,0.3771362991092577,0.33763246876224273,0.32299449184812734,0.31479166941874603,0.29691508956569623,0.28069650423760373,0.27301568824057276,0.2981449326034775,0.3232144742229701,0.3404108058237292,0.34215475166983,0.34419017921176764,0.367821076731653,0.37301294775790006,0.3728460645737133,0.35861533777942856,0.31410138382415753,0.3121555714951578,0.3325311853652899,0.36951734719677565,0.3626898506723124,0.32200726975747185,0.23318123468223706,0.21017015425908858,0.2821692966807683,0.37139409935731726,0.45252361683170883,0.5405610487467059,0.6413996322363433,0.6988174534954841,0.6348688876841606,0.5379187271462691,0.4594530161771193,0.3965714355447496,0.3591511292260463,0.34709322841348844,0.327300037572112,0.30766709955719507,0.2821264393871512,0.29571213537152574,0.3355180580548949,0.3627832793819501,0.3726204461609488,0.36916577475227075,0.36615995555397496,0.3599738366520324,0.3470578278178922,0.3146292814504601,0.28120665909288634,0.2919683590316653,0.32339484160524745,0.35422017543087203,0.3198391801988516,0.23240365655550543,0.1619305537867579,0.19277269765735539,0.2806712359167054,0.3713328105868403,0.4548313212337354,0.5439165527013909,0.6439358377629192,0.72356622196783,0.6772323620681415,0.5862752614145623,0.4970251881589405,0.4162299679386534,0.3591610192429806,0.3306549628155333,0.31059014683774433,0.28778804369897437,0.264558295837509,0.2530972351166769,0.2833414911388885,0.32213929642687344,0.32405047544499843,0.33227526242350724,0.3658440416482509,0.37281369771776096,0.3661848231269669,0.34095518183562423,0.30703578386721664,0.3172690042092865,0.3390624220858742,0.3594309221215315,0.38162445184219584,0.4225563379955728,0.5005893499048348,0.588036872758982,0.6778270080042581,0.7705412568825787,0.865702999874254,0.956035781304694,0.9999999999999998,0.9392439745383421,0.8400834250165847,0.7450714985306475,0.6416794323272372,0.546478924983995,0.4445452743739515,0.36634288035672236,0.4016175826375237,0.41519686597320127,0.40313783981659745,0.37518141221906576,0.3456372979577014,0.34072497047148764,0.37141217609749266,0.39956420847382,0.41029810755488616,0.42050057564771914,0.421388152446007,0.4173735709320272,0.4060978072340544,0.37555963886853294,0.34275488200932913,0.35370936613396897,0.38100238545405696,0.3965178192095389,0.40499614635907766,0.44136981993196867,0.5119646335262666,0.596695891602131,0.6879143781551889,0.7755518066879012,0.8539509415916402,0.8387984355730913,0.751585547798993,0.658824726069742,0.5602599068906089,0.4649755821830521,0.3926238508033848,0.42760629887038326,0.4311167395153792,0.4196612992620421,0.3857674719199802,0.3709193584373869,0.39602870005012636,0.4177608171483238,0.4221001271155165,0.4295531878492096,0.41840527200342437,0.40907911895769655,0.4228659277270965,0.40773375980695614,0.37024022874689,0.32981605994744734,0.33749514552973525,0.3598630773296867,0.3731576406253254,0.3810519588139696,0.4071596495071821,0.47498628932365095,0.5589264632437774,0.6526439794860652,0.7557976998121194,0.8498799873742919,0.9403874206595717,0.9933431189090276,0.9446938954034512,0.8488816588134036,0.7541103032415666,0.6513967072783708,0.5509515272861456,0.4559027075641062,0.4040702543531911,0.404691661639377,0.3840598975906715,0.3527220270267939,0.32725396109072036,0.3265317557012042,0.35371709194837586,0.36223543425705906,0.36086876643827615,0.3573671362220925,0.36653907313295986,0.36069791594599443,0.355703360816207,0.35175379932050554,0.31859386901087583,0.27113129711096673,0.26470577028445397,0.29011364929486283,0.3184370898503943,0.3379910350941666,0.3571298672696892,0.4143902358125573,0.5031482577003035,0.5939801059412988,0.686147193925289,0.7783501792799592,0.8705902946418236,0.956607244346033,0.9668075321849383,0.8798595035944683,0.7750823029040401,0.6783304768907332,0.578248401204658,0.4780887172952235,0.3849728884991903,0.3532145443001806,0.37803047139227464,0.3742555651244064,PM
0.1628383902136148,0.1622230233833808,0.16675535597949498,0.1665019370010039,0.13601546285045818,0.1028488501895728,0.11129646133349502,0.1385341347647664,0.10959682912146307,0.04320583691571378,0.040603651068798596,0.11448333766635854,0.19593137436900188,0.27912584759412384,0.36218122391443663,0.44479695495104643,0.5273750125509116,0.6100107506353003,0.6984221991396087,0.7870687492802206,0.8708291608488263,0.9347061155964229,0.897737944671424,0.8176322645096152,0.73604900221603,0.6512810275392273,0.5695578144778666,0.48710433453455604,0.4038742462445606,0.32223479264716315,0.24412038660784785,0.1767294693153345,0.10334556374576609,0.05764812108393702,0.03387217886544058,0.025583428683204845,0.03185466661388392,0.07322102283427578,0.12061597965760251,0.15682415894741797,0.14978080687903939,0.11729132002308851,0.10087253759747417,0.09958055285020495,0.11597863732276248,0.1253121130114121,0.10612586696345794,0.08296659517280802,0.0845709002472319,0.1126716147132194,0.10694410802587817,0.05893681966381159,0.02667265261603302,0.08595203311227562,0.17002515831609144,0.25231888894700694,0.3385499868216486,0.4265323824686513,0.508158679602331,0.5890275745224007,0.6745327639936574,0.7582651984363773,0.841572567071498,0.8813770761126349,0.8183742701784835,0.7368856257703187,0.655398707422405,0.5722168059125403,0.4912400594819679,0.42085539978265274,0.33989520689706,0.25210349637985474,0.17311102179368842,0.10366134100719115,0.05754572837468941,0.04195616629640675,0.035914714568760386,0.04802712421827504,0.08793934653820434,0.13077415784220658,0.18033874208627587,0.19137050121695665,0.15522954022052127,0.12641598161647583,0.11132951194394036,0.10649126843436241,0.10598062544713005,0.09151326213449673,0.06501884020896465,0.078502224367057,0.10428388238641673,0.09080128161388412,0.03739972306830541,0.013504802481558276,0.08055650622532462,0.16250782714636158,0.24439953686570504,0.32912553369723363,0.4104389459418807,0.491389047084269,0.5715746424522923,0.6548938339083867,0.7366278036687084,0.7969774458391727,0.7494738571657167,0.6627192014092209,0.5810338486231761,0.4980912700049953,0.41523368253840487,0.3335942210231231,0.24900969887898605,0.16908839780556595,0.09580971972252494,0.037765638826300574,0.006084339061382282,0.0,0.01930427651417821,0.051853163799197466,0.10093024147752105,0.14811035900808944,0.14649074640993187,0.11678970491501373,0.09863991816646478,0.10773506357135032,0.10853718933846346,0.12047471538154375,0.12636348017076027,0.11036927543409836,0.07904722061899117,0.09877463010485799,0.14197936688758706,0.12676814724630203,0.1229340317036447,0.15752771349647898,0.1581332070566268,0.1497935019810941,0.14051879136014533,0.14369704879500067,0.1425268016676735,0.1690425948109604,0.19138272338457019,0.168482175364,0.11871277256121093,0.07102784428798237,0.04586326097374771,0.03921831283348065,0.06077058977469285,0.11903203756478953,0.19390316914331107,0.2753867980277336,0.3588645724724082,0.44047618514031184,0.5227489067456594,0.6065634522917589,0.6884782930262827,0.7699505573721299,0.8485536924729749,0.9034872521811312,0.8669478126904973,0.7977308006347763,0.7180460878258415,0.6337572788945285,0.55238835994189,0.4718274294108902,0.3916787975105043,0.3062106040631132,0.21757644833768697,0.14050252924082662,0.13189190485421576,0.13978421434464905,0.11290495298913727,0.10616198660416498,0.13400878927164217,0.1424035876833405,0.1405945304513887,0.14505169834645537,0.15988123658372944,0.18369389206555153,0.2225216083113417,0.23017370492123268,0.18670421520771874,0.13877294239503013,0.09501135368123026,0.0765634499669432,0.07836423041666096,0.10687219279177085,0.16974522943933978,0.24631888779907074,0.3285840820124153,0.4121603872951307,0.4943226476516045,0.5768593307090357,0.660107686563074,0.7485535142427628,0.8326915420035785,0.9093954241109494,0.9549514187924015,0.922114023969463,0.843185457688099,0.7546095156180113,0.6670033430615492,0.5853015486008721,0.5023421891824094,0.42003772133279815,0.33885020969870916,0.2575345609382571,0.17646866643854486,0.14904134158052718,0.14929264134840836,0.11933228758592818,0.12727407658916223,0.15558626599815528,0.15996211639757796,0.14445958034380246,0.13737607949142117,0.14801667795197826,0.16727679254022076,0.19120345479173673,0.1776828646387172,0.13840793248657435,0.08953837106084461,0.06316258561026644,0.0667385851550808,0.08182043594815203,0.12458061541668441,0.19486021202746473,0.2743535806305448,0.3576756543933657,0.4458589742496393,0.5284697297015986,0.6140293096419833,0.6968157013330938,0.7801249678901314,0.860401938544713,0.9384070653496717,1.0,0.9932065577458018,0.9200825234976313,0.8351266782140274,0.7478376637220494,0.6660650492882545,0.5816440829870166,0.5007681834866133,0.4192069079033589,0.33605348649846456,0.25498568511720965,0.19269531877469914,0.17703475757931275,0.17535745091113863,0.1575250842702487,0.17261017891533736,0.19938094390370953,0.19924856386671475,0.19920067102936945,0.1995787245613021,PM
0.9036296653405379,0.8669625027723372,0.8332934971716032,0.8098184004584316,0.7999203725320171,0.8049013636611587,0.805571388730398,0.8052139575541887,0.8018996641436463,0.8041599828659408,0.8116887421902842,0.8138366985359428,0.8134813476170631,0.803595713149771,0.7893716187700158,0.7867540565792382,0.8005037995744734,0.8205705397673958,0.8316272725791832,0.8187182097764872,0.7676854700531094,0.7086566906800617,0.6516544740753957,0.5955252271957477,0.5350542098812195,0.47557465525398135,0.42114039023891403,0.3614979980788293,0.30089008681638907,0.24029694986839578,0.18196493459136065,0.12697094087812943,0.06677271921503025,0.011431344004567578,0.0,0.04920679360832503,0.10967827221526771,0.1702881971491036,0.23088976252976878,0.2897792248456502,0.3444058973442543,0.4044502388223665,0.4650595514068593,0.5256694763406956,0.5862794012745315,0.6468786494560265,0.7055937824811859,0.760209348595473,0.8068266935401657,0.8049927023215108,0.7984208240418836,0.7924356750174993,0.7895220098148062,0.7922814436204612,0.8037652063931119,0.8219535213508881,0.8459068556217778,0.8784944746793225,0.9201244175063511,0.9473678390960513,0.9295985944326107,0.8884464496344481,0.8537515412540607,0.825116172468701,0.8033735359194049,0.8002599155967752,0.803906119020288,0.8041411368275183,0.8034634143838605,0.8086892956876247,0.810242020053655,0.8135630102167452,0.8132589850623612,0.8100915934752312,0.80229851317203,0.7884554370164766,0.7869592089391056,0.8035501403519246,0.8250251167400545,0.8344627492796232,0.8210261662621642,0.7644655070699474,0.7094303457343568,0.6511570409211626,0.5905960718204707,0.5328838656146929,0.47739110606513757,0.4170130809574196,0.35640500608917236,0.2967054614421075,0.24227869784992562,0.18284834099587843,0.12250096371510666,0.06719130879353219,0.018226791479779125,0.030151150748027322,0.08728768800115827,0.14737739899232272,0.20212023077773678,0.2608388649784451,0.3214396757200405,0.38204960065387683,0.44265952558771227,0.5032694505215488,0.5638514050063147,0.6217334860521805,0.6769317857867886,0.7300157860061388,0.7815687108873558,0.8239767687817615,0.8154776530275988,0.8056258499493444,0.8034733774175592,0.8065122166329567,0.8135726937560394,0.8261277214103285,0.8428878865626953,0.8707474078389056,0.9099641780852025,0.9489276139348449,0.9765354548801263,0.9528770304484689,0.9140417813229852,0.8788685071611012,0.8458584986847301,0.82181753963157,0.8141183211139641,0.8138507224189387,0.8138506780748477,0.8138506780748477,0.8138506780748477,0.8138506272965159,0.8135629404788952,0.8041142930799482,0.7876311722343944,0.7822164450205599,0.7964840539434753,0.818060248750114,0.8276856470553356,0.8654419451480669,0.8950473925361236,0.8637715613575804,0.8460333302306481,0.8275209591965457,0.8100348404061016,0.8129720117238209,0.8270234410676923,0.833574584120475,0.835631469250517,0.8372159147926633,0.8362722470610798,0.8377507916274872,0.838005685722068,0.8385375439806652,0.8397750815488746,0.8405595051496723,0.8617423257123585,0.8950247827779018,0.9318454049817452,0.9704207201673752,1.0,0.9987843160868316,0.9651354129649506,0.9229107289170456,0.8860079460707332,0.8598269702889209,0.8437283558800891,0.8329864707216358,0.8289915497059929,0.832377148372735,0.8369839574408001,0.8584597272217377,0.9009654586527575,0.9126835354470323,0.8707996272987991,0.8155001001337577,0.7669792300402639,0.7131285907580097,0.655272195219546,0.6219273935770725,0.6669445744789065,0.726228224144556,0.7806796468082952,0.8393948872114801,0.8935885964307105,0.9420356084443059,0.9378322438533359,0.8922587761951802,0.8571356442468333,0.8503687607853582,0.8279128790072018,0.8132840433192446,0.8210350272520187,0.832425428057289,0.8337154914761643,0.8337185270622646,0.833716407944291,0.8327330276803021,0.8265536629166036,0.8254423430332799,0.8249915790578027,0.8242746307447174,0.8411046356218749,0.8707238396059561,0.9060605661208997,0.9435792789530068,0.9759601045372762,0.9738664082908716,0.9423140867807301,0.902997450259266,0.8696451520446035,0.8435394989904955,0.8264495430492506,0.8178999930190182,0.8177290733576211,0.823813665413308,0.8332566184929676,0.8680749071504209,0.8916199908467318,0.8519940573216459,0.7971862003048967,0.739097655382137,0.678509072799453,0.6178991478656176,0.5573043980434357,0.5032305079329492,0.513335061626076,0.5685381467190384,0.6288490793707521,0.6844207725472332,0.742038863412228,0.8013327895037087,0.855774413852208,0.9124261626019655,0.9425957192378046,0.9088275468136108,0.8633246516869156,0.8446972787887063,0.8282184954826705,0.8133636761172759,0.8200662988835475,0.8328355184371444,0.8395183600729242,0.8345910539342972,0.833719096075657,0.8330346345061223,0.8295967039190028,0.8309890669280421,0.8257638135606132,0.8255259743075481,0.8310620501495579,0.8513881852543993,0.8822730112439953,0.9220416102877417,0.9581136757603593,PM
0.36657619348354453,0.368376392746641,0.3781699624945589,0.4530218603633993,0.4865106171252451,0.4334689604150115,0.4902007155626871,0.5982686735523868,0.6413226801148024,0.5477051394045565,0.4444145446659178,0.34114755665130714,0.2698439260785732,0.22433226406563866,0.18815319873710967,0.1576774448903029,0.10408124288333553,0.06796258511577591,0.05145307838014945,0.08420039779274857,0.14436162782928808,0.21822232210071935,0.2709036164359042,0.29701931666598735,0.3297503969297666,0.3278182353388277,0.34161567704361406,0.3531047203837345,0.37136233618496206,0.35023836798417163,0.3181451617100066,0.30563964239895647,0.31087224451224094,0.33438060778329914,0.3684271578888736,0.34866650740255567,0.348237270772775,0.4313480693580023,0.4799613712687516,0.40390970825456174,0.3943740320377911,0.48808198493207877,0.5900660923235073,0.5781485934305324,0.4750469994755493,0.3734207129018037,0.28404539533550466,0.21629478005417946,0.1592631357876888,0.10042777184554108,0.07010674291045671,0.04791441184038181,0.02240939909196049,0.0,0.0202607970244868,0.07272096537907435,0.13465073177618114,0.18368383263294863,0.18240400894366715,0.19508707739841213,0.2050455645991236,0.20821736459020812,0.21959453079684232,0.21940609284445678,0.1889165204891543,0.15008676450210334,0.1028219501480061,0.07617371581531529,0.10400462179131198,0.1527508351450675,0.19604699133036352,0.22228996337451923,0.2672788882142383,0.3520566637868683,0.3705663990840886,0.34714038592164087,0.4309264806411863,0.538339878091628,0.5584759659138272,0.45620612529151927,0.350021330079862,0.24359332049159033,0.15356461674730282,0.10863350833260288,0.08534169233102373,0.08853561115058595,0.06363414149004765,0.03526522686378497,0.04678442958493845,0.09688622284134585,0.15751802257575864,0.2267472313080865,0.284524348352694,0.3063870639816475,0.3168296013388172,0.319273367760327,0.3363623225647352,0.3539598463611835,0.35565896882298764,0.3447483773147533,0.33348951203471966,0.3067341980701874,0.28054120308001984,0.2982183702136738,0.33332207181294393,0.3799316631227905,0.41563792406055367,0.4551236683874351,0.5382882098087034,0.5736303943682652,0.5782280703490024,0.6441144039626661,0.5828771048828192,0.47760238649743014,0.37996917316927004,0.3063355526976408,0.25326508975624273,0.21953522379243084,0.18714292323740578,0.14495789416871885,0.10343016348441658,0.07001841058576286,0.08419535507462594,0.13155912777120582,0.14046598687063527,0.1357111145719916,0.1805423473399701,0.22157413908924184,0.26207878182325395,0.29200090913897636,0.3339102519478363,0.4041823309749253,0.4980276012029221,0.6037417491753443,0.7167109490116821,0.8254903266652098,0.9293789860977157,0.969331030622711,0.8889685283949054,0.7993051126773842,0.7433591669463602,0.6511499739505022,0.549817803437235,0.4732947863540682,0.44463977025737345,0.4054097333365747,0.36137983229953585,0.35313278107715096,0.3752612003824414,0.3895317340182296,0.39933713412191496,0.41834025345952686,0.4102114980734326,0.3902397497388894,0.3760466068598838,0.3678112635061055,0.3530376168642242,0.3263439807510964,0.2609833298240769,0.20052424715953432,0.13689819072391574,0.09568611405139027,0.11785960430866416,0.14292248797878981,0.1518385879934927,0.17842961258549028,0.24356143825582732,0.3402694566990414,0.44081251041325853,0.5267281161281931,0.6446224914789416,0.7665488338843138,0.8700463101720262,0.8969654833918481,0.8129658631565433,0.7050262499661337,0.6022457687963452,0.5554373196656761,0.47527065144111136,0.3792484493984545,0.3005633962228309,0.269069174717377,0.23519858884304057,0.1813462239280459,0.1574304769979289,0.18476010683550248,0.2312442773107919,0.26445219751527915,0.29637505477572557,0.3011826653752605,0.2848271024364135,0.2698164291115277,0.2505665301706408,0.25949086652907516,0.26203746691307295,0.20932328446417925,0.13822842167208416,0.09083117113185102,0.08005305329993684,0.09943514855743407,0.1386914240841386,0.173216355323063,0.22230915193674416,0.2912138270612097,0.3705914390473404,0.46888791001601193,0.5742689589637919,0.6800571995248106,0.7923937326163695,0.9010188778633466,1.0,0.9829166299020828,0.8779235696872076,0.7687624529584287,0.6650970606250053,0.6378278951373093,0.5641694883222876,0.45842582584745273,0.42017759323914294,0.43505849178704326,0.401021778981693,0.37359301655716814,0.38686582161840244,0.40327261115749646,0.42788057673452906,0.4302952029810685,0.4034904626567535,0.3981602512278095,0.39434009449413354,0.394124357721799,0.35674150691405115,0.316720100121092,0.25110105790554105,0.18244591271305088,0.12485406148303468,0.12728857238498392,0.16411125816607885,0.21158053267152743,0.24069408549270488,0.280635492798051,0.3314642022022478,0.4106758955615981,0.5118557717335004,0.6196091617010104,0.7369125846496098,0.8510661975806721,0.9214994257463682,0.8695947606984906,0.7633236074458032,0.6865079068187177,0.639963469020401,0.5470780013468146,0.45374123979218783,0.42577429364977926,0.43684242776998694,PM
0.8465164187015164,0.791771205194522,0.7432100577789806,0.7013643319215466,0.6863092085357199,0.6958032589789989,0.7149595288425221,0.7241306231153328,0.7424521505190071,0.753476540892561,0.7501201555099675,0.7138394836563271,0.6703194107308335,0.6683013400414066,0.7242561294437229,0.7895286220933664,0.7662279463755688,0.678075371511488,0.5891805818047158,0.5056431238684396,0.40784643301800294,0.29672871147688173,0.19026100569287774,0.15468297187158297,0.2290341473184161,0.33210922259685605,0.4407199879883814,0.5405394641224048,0.6442992656427853,0.7323895907922005,0.7208825066460838,0.6644101744313669,0.6183121393069371,0.5809425459316198,0.5531901317066419,0.5462714255939543,0.5621521153548272,0.6081128879756585,0.6772228388256161,0.7492326589032499,0.8175916207927423,0.8949134215671726,0.9375657768529688,0.9002332528007062,0.8427712889762757,0.7943393371910856,0.7607120493485389,0.741888484218264,0.7361614575369031,0.7328289109509738,0.7161084630028229,0.7146065310243825,0.7124321395373099,0.6692717110220499,0.6217360788076074,0.5961016843946667,0.6311535392007848,0.6821961543084498,0.6520229713729631,0.5641578246510073,0.47041540384850267,0.38806011643827887,0.2871328144440395,0.1873878421032713,0.08301331486376418,0.04770172354704805,0.12583702283104303,0.23290693652932326,0.332753875112735,0.43753398800829935,0.5374906387722658,0.6111517100953279,0.5746937129094531,0.5122457536223739,0.4602078965181744,0.4198326314900207,0.3767386439991105,0.3608977069414614,0.3644311431588796,0.41641778696737974,0.49111169849048597,0.5661581225787042,0.6333814130728195,0.7101867297358448,0.7264166342092913,0.6716577796484939,0.6151797951183666,0.5644386887463919,0.5353005012982286,0.5122837246396617,0.4882426433146043,0.49076756493796125,0.4854135090457685,0.4892481542519649,0.5004873731192729,0.486995205107164,0.4479677621634468,0.40798632321486394,0.43366153903531,0.5043366835787757,0.5482167881925122,0.4979458134920307,0.40788591930981033,0.3133241095784509,0.223853342532065,0.11703836208856755,0.02292452883301066,0.0,0.0769749288708712,0.15994264001741598,0.26264053505393115,0.36232299108065646,0.4633913090837094,0.5420340091272764,0.5160313690759422,0.4630577405868843,0.4146392883078618,0.38249068637874295,0.3729998417218545,0.3939151758929773,0.43056744523024904,0.49195504733515527,0.5599220173493675,0.6411751113275503,0.7186388079559931,0.7866172516141505,0.7818661421500561,0.7205737787951847,0.6719255729381874,0.6432841903298314,0.6453384073479076,0.6617535343834189,0.6796086968525397,0.7166473877372246,0.7290904640448668,0.7043572144538572,0.6886240861671613,0.7100597367804289,0.756357447884966,0.815802649356987,0.8524277448410436,0.8372580694609182,0.7634577897384691,0.685146494405902,0.6074247899857661,0.538076700663074,0.4731329023997537,0.4357722567293112,0.4225682800119772,0.44044724584203365,0.48958245822481006,0.5365568827738381,0.6003657037323671,0.6760581089173807,0.6768386304735627,0.5914719587395969,0.49219504467758,0.39181910722135704,0.347103628143659,0.40946746235735443,0.5006158675456014,0.5876228771834171,0.6146906323245211,0.584129207214171,0.5193475577881568,0.4728756009766468,0.506236393827562,0.5479185836482832,0.561729605461708,0.5473448642213592,0.536868144524663,0.5440549995781878,0.5527099241208275,0.574468254849331,0.6015832813475845,0.6467922942013624,0.7062224458082311,0.7658847465061274,0.8073977860868813,0.7879050337654605,0.7091809072601785,0.6351526407225547,0.5585613286098536,0.4855833706112356,0.428058419368726,0.4187517813981856,0.4283417680574235,0.4698429294612376,0.519466961565151,0.5756825338475293,0.6413718432670961,0.7168521872619329,0.7391402916851515,0.6687621112680926,0.5696122400373738,0.460416788177163,0.4169901797029465,0.4854381331882429,0.5735259149558853,0.6631964422374645,0.7295423617495911,0.7444881544547468,0.7010253562148931,0.6491856160801319,0.6774057260161856,0.7233039786409443,0.7655714354689662,0.7676348709669365,0.7769133926968887,0.7729676306725755,0.7818308400741798,0.7882344417340872,0.8027094408276341,0.8296173719542432,0.8669172434453363,0.921620467338049,0.979381683920955,1.0,0.9530923095866193,0.8819350767254872,0.8137796744950774,0.7423504251061037,0.6657521811989229,0.6162676856911231,0.6084105332578154,0.6310794732131151,0.6713617610166769,0.7209165274337539,0.7759299138391031,0.8491655651896091,0.8595564021278945,0.7802482510291919,0.6812461690276099,0.5953073704674061,0.5662102133876399,0.6425742503910876,0.7363913893895693,0.8201841211024434,0.856126131527545,0.8349928198614824,0.7695848000261334,0.7268425869173814,0.7578022212627857,0.8025387350842057,0.8119054690060858,0.805117961054326,0.7878831385205274,0.7788778211246403,0.770895607330738,0.7485257629427844,0.7499022957969346,0.7627214925093568,0.8052610425880022,0.8584630210327546,0.9036811781760075,PM
0.0964495950718205,0.15042455616388395,0.24845005511907514,0.33751195441194026,0.38338135851493815,0.4595441269116307,0.5251428120098627,0.567087812848527,0.592214129975027,0.6086498625819838,0.6112907600040716,0.6112949137298829,0.6102122012265112,0.5969896533435621,0.6007193639078827,0.6028313546566668,0.6169560824126274,0.6266413387031271,0.6247447626872122,0.6311984722747361,0.6082335140053288,0.5585254370497568,0.5236663341414354,0.5562329891342745,0.6180260781872073,0.6629860689165694,0.636863339730426,0.5390209509932231,0.42102982170329595,0.3079247790492272,0.18742816189646128,0.08019262581976783,0.023180197011062997,0.10084950128640191,0.21894991536871977,0.33172138588515176,0.45579663818008864,0.566663317255387,0.6882085632081862,0.7841868098868487,0.7407116643396487,0.6771718023636395,0.6472146429385832,0.6213313549185475,0.6030757739718875,0.5786318480096138,0.5494069875763548,0.5160113289773021,0.47011672345746547,0.45055351589494386,0.4876600077348763,0.5395602821414744,0.5715780859727349,0.6006911730797282,0.5992282906583122,0.6032244320872313,0.5979998633710095,0.6017458429397862,0.6080091506099388,0.6022339540470756,0.6042710446788488,0.5993609929522496,0.6092270580542007,0.6222189132943039,0.6318564080939546,0.6314245186181027,0.6088407569451206,0.5744392389124364,0.5450058399854161,0.5582339827118061,0.6223664666780855,0.6762284203320394,0.6728509372084357,0.5804870553549493,0.4631338441694872,0.3372586366881265,0.21144978154215854,0.09548915933590907,0.0,0.0030165655219516196,0.09697643317179594,0.21936919139067834,0.3391363881311662,0.45111779646557126,0.5612182992631602,0.6598216784699225,0.7618056553188115,0.7666997901223929,0.7038466413739406,0.6762742316377328,0.6511140818679784,0.6246898594824031,0.58777267582234,0.5722622037854821,0.5403341575524849,0.4935661772734523,0.4630221375099306,0.47334515958351187,0.5176899397993928,0.5624001519935398,0.5908861220586412,0.6101442263850485,0.611294848036366,0.611295362635579,0.6112259173746808,0.6041537224267475,0.6031706410351396,0.6112062697364609,0.6151047803475138,0.6255193433060451,0.6252358565049718,0.6319378901374928,0.6280985562882049,0.5965921806809251,0.5517233220957527,0.5502155460230544,0.6054616774127322,0.6680874435472881,0.6782360060225092,0.6097243681701228,0.4927049866444295,0.38058937055240394,0.26084628765537987,0.140692172387896,0.03849643649917356,0.016424546428363218,0.10847885848958638,0.22908016152584354,0.3394092337080221,0.462936540995464,0.5774827021876834,0.6939983055855836,0.7737455496528449,0.724916514354224,0.6800414844563956,0.6604903659641468,0.6925084493403366,0.7354062622526061,0.7662333367238912,0.8386297521365496,0.9239596939559256,0.9490879608379181,0.873905740026987,0.7648374593068321,0.6484973294149778,0.5341506787713559,0.432837090061291,0.49343507219919625,0.6149922586694183,0.7058815065217416,0.7439619535391131,0.7473821022844147,0.7051625591325803,0.6457139406732777,0.6421016353553237,0.6778205001765509,0.7004299098892606,0.7090074414659293,0.7090988139323451,0.6883617218722806,0.6817904139112807,0.6812750627010851,0.6685044042248447,0.6672855354676446,0.6810321163226036,0.6817652876784992,0.6817654327516816,0.681649389749269,0.6699410526756489,0.6403211300372904,0.6060931280706674,0.555282307611678,0.5430890559431107,0.5805355478005576,0.622909005457112,0.6569744512537259,0.6851696814351715,0.7148336700413771,0.7382791679384724,0.7678561470041783,0.8284151591668292,0.9246507464647551,1.0,0.9508561973228851,0.8437212778900287,0.7307928924009879,0.6127822048941303,0.5013563071851954,0.5221734999472512,0.6339137671116246,0.7225538537389293,0.7547789941063638,0.7340142587858574,0.6797796799811988,0.6254013062137025,0.6357475572864466,0.6783604049618068,0.7010514252825817,0.7101023349859088,0.693370752114336,0.6963943542137967,0.6829561050891866,0.6742742078978781,0.6637342820251275,0.6788811748374437,0.6763959073953769,0.6625256124824452,0.6746301095388589,0.6730051203036282,0.6701055659857382,0.6488099446759752,0.6070493429953832,0.5634970838867295,0.531865374735804,0.5541510101839475,0.5967004098619726,0.6326965682294392,0.6562339212484325,0.6758158990076577,0.7086927250736341,0.7193466514926983,0.7546274746539927,0.830542647905558,0.9188829784098917,0.9777438914623175,0.9187673390875308,0.7965585799484773,0.6778830225850103,0.5653463768269935,0.49105578394777627,0.5677045525943636,0.6711100096609282,0.7181680508106578,0.7402987845677176,0.7214049315067976,0.666212408318017,0.6168038494915793,0.6433086886770374,0.6790456800280493,0.7007256266744206,0.7024890303311349,0.701056894551622,0.6855735203735707,0.6704747693651614,0.6611838802547587,0.6610439483281332,0.6638008893672929,0.6795605797564046,0.6779570736001097,0.6585214993356723,0.6404110623524879,0.6117558496346711,0.57317990503299,0.5212929793843348,0.48779139122318194,PM
0.8010409549471695,0.7670189251154051,0.7452857968812918,0.7494568581187842,0.789127625747317,0.8330968425626748,0.8278852547555615,0.7438187904076179,0.6474989913606428,0.5429244470326653,0.4460806587312365,0.3438802910333072,0.2426372917468551,0.1454818986508899,0.06164769514739188,0.07811662382047424,0.16752129028996077,0.2646148989401369,0.3701275892295013,0.4761174093611009,0.5806582423860209,0.6765546806525229,0.7758693827085164,0.8477804808685703,0.8420135348528566,0.8133696527864058,0.7984793680154783,0.7728105924241102,0.7760096837700792,0.8153270085835087,0.8432586098814101,0.8076686819406607,0.7784084364754034,0.7912984773274345,0.7901101968365614,0.794627154027167,0.799023608703813,0.7877446792097456,0.7786882748036004,0.7726896982684981,0.7519060187498485,0.7513877095845694,0.7746148154813801,0.825260582963123,0.8310898360736008,0.7682015665365516,0.6829381621411652,0.5975193538554471,0.5162489230716965,0.41698819514957064,0.315229520766793,0.21814568347216334,0.11991479020289586,0.0831646848843337,0.1545318759940555,0.25859630716411885,0.3612415265124045,0.4578088965734344,0.5610999613281482,0.6566189867529821,0.7459635014496506,0.814146810685555,0.8119370981980236,0.7793338335939552,0.759048491885524,0.7461937818115276,0.7457475059073719,0.76228828740739,0.7935713723937592,0.7654295498160784,0.7294860974005102,0.7189802563595913,0.72489375819601,0.7328159163426438,0.7394807658770481,0.7409298000908013,0.7340104151503943,0.750044690700147,0.7649017765464758,0.7693673121009004,0.8156486040681752,0.847746560702715,0.8226213174871122,0.7310381285558594,0.632077641630097,0.5274898492686855,0.43145102332733276,0.3281127605329168,0.22996440362723414,0.13347088746384994,0.09662410298868518,0.1752581854091042,0.27090693785561326,0.3741852993235826,0.47083546481064165,0.5727819911688721,0.66971022469641,0.769309778124964,0.8456834679705449,0.8472315533235999,0.8208653165455864,0.798763096230948,0.799671673651831,0.8246627270125646,0.8613297847801744,0.8470278593054619,0.8260544115166442,0.8281228402591136,0.797384271471034,0.7513506213554779,0.7504537896764545,0.7718045385984971,0.7774278086906483,0.7533568235048798,0.7241043558147509,0.7206794411040749,0.7465557042139397,0.8001169446340601,0.8069557056023695,0.7519967739452513,0.6595287984249587,0.5543768549410495,0.45375065378250157,0.3555534373031919,0.2507603923537953,0.15439958135542686,0.05529553595523273,0.0,0.06358678297454023,0.1588002640243551,0.2627594002152238,0.35962911978582857,0.4617473167208197,0.561558961965122,0.659178677795661,0.7530760086898185,0.8130307858732564,0.8374156334196663,0.8625078734619362,0.817343754396026,0.7297491135502991,0.626997207927454,0.5210373919481788,0.42137317947723596,0.4154258882681321,0.5105150947680168,0.6067853232515346,0.7112977445009856,0.8081492950333138,0.8933858385732558,0.8962426386625981,0.8631876815376864,0.8397554162320982,0.7885887237187605,0.7703183325782177,0.7818050427705685,0.8100358029445862,0.8134802963460717,0.8008837588362836,0.7942767164555955,0.8362121281533719,0.8663998303794929,0.8628614507060319,0.8827860835111687,0.9160662290294563,0.8942783222215753,0.8550789604514504,0.8421793010683591,0.8553295840878457,0.8823726495328643,0.9028054711251177,0.8842640697071344,0.8033831451789719,0.7014253117326417,0.6139472537472777,0.5303285858301869,0.4935625624128288,0.564134158084836,0.6681475811540072,0.7720109164072853,0.8678977475353398,0.9639273091874376,0.9999999999999998,0.9377125256916894,0.8833991092319369,0.8506923858764,0.8108213763103713,0.8122475198751486,0.7911899706438288,0.7743241077079126,0.7737186561276619,0.7735886304569373,0.7673684718471818,0.7623590463144676,0.7846689853073785,0.8271054461793745,0.8439048392864479,0.8077534917849614,0.7888275485340912,0.7969275185649345,0.8182003597157184,0.8500260041815924,0.8792425642379318,0.8641838376324003,0.7709363737227688,0.672426985799427,0.5722578279910768,0.4694119541863251,0.40196533567705606,0.4625880046294333,0.5623683359943121,0.6607687100876085,0.7662173770148588,0.8644666144979627,0.9592822413818067,0.9984031421284445,0.9348643247056942,0.8781740809530294,0.8452177860437347,0.7987397066793649,0.8014543584733416,0.8202741276638152,0.8225212570548559,0.8384000300250383,0.8403854483473989,0.8400398967612144,0.8375397240468867,0.8264247404480403,0.8427350680544949,0.8860994119201286,0.8894272205069484,0.8469074795819209,0.8193519924263619,0.8358515133194142,0.8535824680681052,0.8812202040011952,0.89243435351152,0.8480966793246314,0.7543528922258502,0.6583973951343192,0.5553070828715114,0.46391405047596557,0.4826950604884208,0.5751010492517634,0.6798917856152105,0.7815789661798596,0.8781806099982072,0.9626672739568882,0.951247651275924,0.8907053279256572,0.8643979397846133,0.8139227983828097,0.7902057518165952,0.8136531683839425,0.8392053943355104,PM
0.4073253980685849,0.4400496874707329,0.4684518412800851,0.5128909753022928,0.5222687253391989,0.48949608625712937,0.4534901685597048,0.4204319700248882,0.4123125378274821,0.41185742615264953,0.4029496811243485,0.35962213691722233,0.32571748430552994,0.34217916652062685,0.38118764706395236,0.40585980682662903,0.405596140796872,0.4549444434174572,0.4344214077088999,0.3351810263889865,0.26749264657502536,0.32288174723103324,0.42552442913769184,0.5385155096778536,0.6134798286453123,0.5529642319512416,0.46508990915610005,0.39850487334272255,0.3776413465360564,0.378724437392437,0.3914186373994659,0.42114149310362237,0.4591346302116519,0.5070576692338835,0.5390367108014402,0.5160135327408444,0.47086153179988655,0.4402036417793358,0.4322826173401948,0.4416924287408728,0.43493635273146936,0.4032000546175136,0.3539999460601648,0.34933600201084003,0.3853166094593474,0.41376093309342554,0.41834568014471385,0.4495749321536384,0.37688521485391346,0.2724283678348356,0.1611933869897073,0.07862988429207363,0.1085589477412432,0.2190617644548274,0.33079608274538375,0.4365377888028532,0.5459567327067556,0.5509151775193168,0.47173969014809947,0.406231901036596,0.36924268867467935,0.3651310619971988,0.38898450862757494,0.4132761929924649,0.46185199201269667,0.5137173515522648,0.5356574194724679,0.5080144239363475,0.4632246853571851,0.4285526694816335,0.41984039484634783,0.42066290762132263,0.4257203068792781,0.3912033362345837,0.3516106884538428,0.343535813454495,0.38001265376212734,0.41622718087762545,0.4192716023907357,0.4330253321224151,0.3606642436126557,0.25859309355856164,0.1435926084257919,0.04031717716525529,0.0,0.07907570403265085,0.1876715317890323,0.2953142231136283,0.4118166856760883,0.4970637435521734,0.45930036268643226,0.4115599824094218,0.4108003090453658,0.4176775308917611,0.43645011028315217,0.4733403942893317,0.5271482907349645,0.5803411332833748,0.58108281074266,0.5388521360541811,0.49617339563177554,0.46537428763695265,0.45044672042026423,0.4350379017425978,0.4428785234699526,0.4198983014758162,0.38025293963104145,0.3824899292315429,0.4159668565277146,0.44617196498608,0.45009294543617173,0.45745804851699035,0.3613137987032302,0.25615696466404847,0.15243189649253663,0.1263931950263486,0.20829327486480764,0.3222446240842305,0.4277802171052749,0.5386627838383053,0.5933821614746724,0.5142767915025788,0.4285075508154814,0.39513090119774086,0.40295687290540894,0.41495209864944105,0.4446675817261343,0.47237652164979327,0.5237346498451192,0.5577571438571778,0.5209694040530115,0.48902895254060885,0.46677766206607396,0.4501129297280779,0.47207999041560944,0.5575189652541943,0.6600147429371792,0.7738013733930691,0.8902771495356276,0.9861733703530517,1.0,0.9072297923309933,0.8034602211902757,0.6889072996807535,0.5807257402341044,0.57306779881965,0.5726635844342725,0.5133474064309751,0.4940569686233185,0.4634916252653465,0.4357802578394825,0.463930076031037,0.4910590341259655,0.49914531501118775,0.5017048994696269,0.5227269781257182,0.5683460125574298,0.6096490152534186,0.6457476348286719,0.6401159354088963,0.5949735276024306,0.5421352868615816,0.4946587473658921,0.47249976916343916,0.4736992174029018,0.48391867215331086,0.5556700362539182,0.6557295058335426,0.7583090949836748,0.8560490907487837,0.8785925396665317,0.7894337058325989,0.6751450289987404,0.5713072264611414,0.48427520068953145,0.5309529789020759,0.567627952984588,0.5064480562511378,0.47452694174647947,0.46615313971013306,0.4175207394881659,0.4022070464487859,0.4422651017700887,0.4796768727067291,0.4910905103905705,0.4766173478901834,0.47523179420347317,0.5006102842083506,0.5453482044798381,0.578448731751696,0.5822916367129647,0.5517873980280261,0.4972456807839616,0.4536954213432689,0.43806373051565917,0.4312549526373264,0.4613726767084314,0.5353299127158926,0.6261761146783726,0.727453038228207,0.8252792440401673,0.88466164243134,0.8195055577501176,0.7117414034405205,0.6036650147237723,0.517826411725423,0.560474811096741,0.5622017405945474,0.4969231060479484,0.46447319531949827,0.44130114662665987,0.40739899769282495,0.42796334841291106,0.46841735682463037,0.50362939000967,0.49517524996582507,0.493270050298221,0.5026452681559537,0.529422950010952,0.5746100067233058,0.5946889369918833,0.5803496693206127,0.5350523983626392,0.4907082803045748,0.4581178753333335,0.43915139034113526,0.44028424016580603,0.44749847969503964,0.5222838540027346,0.619778568769521,0.7222978566935923,0.8272436813964328,0.9230879409019166,0.9498876202221043,0.8675042790162406,0.7566761292532829,0.6539082719254665,0.6015097689594939,0.5281876289623071,0.4719506857352993,0.45678795989815946,0.41259802529512823,0.3887703876357196,0.42233559511323415,0.46459787337122727,0.4710429128777429,0.46701080087797076,0.4890474707231274,0.5196771109719509,0.5575575435081195,0.5802455620112243,0.5777379782757754,0.5422415419647937,0.5061138720395828,0.4784171288414889,PM
0.4178122308325425,0.4100889304438673,0.3514790444859781,0.29220589925777873,0.23738204697324883,0.20391768705815516,0.20294377193827895,0.22241810497724623,0.2152888581543495,0.21093373372485846,0.21990550581798085,0.21548936442980748,0.2034008978402264,0.21567114538346277,0.22048602104458737,0.22251280472458101,0.2283860884774862,0.2663222128592906,0.3356989986778536,0.41275462705732924,0.488242829973192,0.5604981800779822,0.638977226051276,0.712455564763864,0.6999853791266615,0.6202170224212802,0.5351685959993853,0.4505809781645531,0.3765287820193952,0.3030823135709686,0.22569098031558776,0.15433865459445428,0.09647220419136904,0.06790629486492494,0.0612959572153402,0.08425505509604103,0.13281051569568736,0.19353946581378434,0.2605220711865399,0.3310693296772247,0.40292751455638665,0.4459647988422595,0.40824323074462643,0.34534614329939206,0.2875355985818835,0.23692563016542834,0.186107229058045,0.16077002733591716,0.1847313291249899,0.20746027661780708,0.1954411247694401,0.18168196953576188,0.19510287282088412,0.21900798897249252,0.20996831076940237,0.19625999346579026,0.19773189191781237,0.206120780261988,0.19720602812393873,0.2525403152345198,0.3288802052306914,0.3961448528646099,0.46426937681344316,0.5459475579269848,0.6009501097763215,0.5477523839238818,0.4658749909457558,0.3798293304239029,0.29525917185899453,0.22118296154619,0.14595820259328574,0.07505992797407512,0.022381590618229197,0.000701054284540259,0.0,0.041435908029369806,0.09484204285191433,0.15426103946224812,0.2248047125377568,0.294932046863849,0.3635679891596937,0.4302333845905879,0.47134872422243457,0.4262321159539766,0.3636307913706489,0.30637735931865073,0.24815836070637554,0.1959721054389163,0.17700915649947824,0.1872722356613088,0.18467231367416193,0.20356468749913637,0.18587642295002849,0.16266464830309557,0.16215118274453943,0.18609914942250105,0.1961623834081334,0.17801296574277292,0.1842259605218879,0.21297961894124628,0.24156864710965253,0.22982417840881197,0.20432331625244182,0.2075743331237596,0.23286000701426368,0.29189306105651647,0.36920078605633466,0.4440318092462756,0.5142607357846447,0.5883704246768544,0.6501848151265031,0.6065765347037546,0.518963808814247,0.4371042415308197,0.35215103549694815,0.27159950394771215,0.19421536931089478,0.12498712917793853,0.06862755118451469,0.03433680620058799,0.03438074681184622,0.06325426061468797,0.0985443437125415,0.1603736795947237,0.23208180928801392,0.3121776070785678,0.3935751016897169,0.4803972975423736,0.5619488672162527,0.649815775041676,0.7361528971490618,0.818325655220673,0.9033462232902769,0.9559882687133578,0.9109203080483899,0.8309156352575449,0.7490249195199241,0.6653552168021268,0.5915279576174628,0.5301271927936786,0.46040156580097436,0.38558967702683633,0.3077460385915991,0.2521305590301448,0.24004780307905893,0.25783093821025416,0.2711185421072857,0.2553080629698059,0.22433831170734653,0.2147280931428701,0.22783301894242003,0.2173099799013012,0.1938649112864277,0.19401665905973364,0.2212644530563841,0.2377416052204231,0.22337930605712142,0.22359812199921736,0.2153988609756754,0.24744255275723637,0.30391865086378256,0.3633105365163758,0.4251692800231921,0.48838413363775124,0.5290751600533841,0.4947607424266447,0.4298516394432488,0.36248643054651586,0.28867242212759137,0.2186628645987434,0.15455497404515595,0.09762239209931023,0.04580650867079439,0.032471283750805435,0.06228863846273991,0.12471561021395172,0.2016851595835898,0.28316466906386895,0.3649648235405012,0.45066695271910207,0.5327404091609294,0.6192415871797756,0.708390354618389,0.7974897854253791,0.8781938860529181,0.8882022688490538,0.817001295673478,0.7339645397570584,0.6525606312192411,0.5705812411006086,0.48866286892420163,0.416172326864956,0.3427527789610816,0.2721141966611451,0.2402825496162957,0.2317427819653053,0.23372523520021526,0.24855353825599846,0.2434527857712765,0.22232062847526035,0.22283562954929415,0.23835488496919366,0.22802343808636172,0.20377052275657204,0.21732350007499646,0.26848706795570965,0.3211636874371282,0.3782286848988299,0.4410680568766132,0.48785452778716976,0.4730286336469651,0.4083234612090285,0.3403047354790196,0.27182251278524405,0.20418531254479677,0.14215550797767174,0.09906886114168789,0.09839428709476472,0.12786418699779123,0.18908952095319842,0.26785073145730576,0.348260641976752,0.4328106982216595,0.5143653700715372,0.6014068377448409,0.6837520692698482,0.7698825840865378,0.8572847492741569,0.9383569895800754,1.0,0.964633718157013,0.8835045071898255,0.7949816853444225,0.7122794312439753,0.6303903801135853,0.5603122503582059,0.4893746710178264,0.4130820837287861,0.33698794122216325,0.272080594977232,0.25207329772302733,0.2506843952925044,0.2401410124574188,0.24056748699079678,0.25098756073064576,0.24625490909877312,0.24507853269805624,0.25692004558850234,0.24719016674654082,0.2316184116967348,0.25963786207568584,0.31725698576072014,0.37692122814012996,0.4354189424942987,0.4729650625330146,PM
0.5711860730470775,0.5824435168269531,0.5711829318142814,0.5611888724482179,0.5558986916159225,0.5498235107540783,0.5263860554225201,0.5003052678012112,0.5141435985114333,0.5396417857268856,0.5690812786161497,0.5473116198262475,0.47675193562075413,0.39333006202791476,0.3118082973591285,0.22464943788968283,0.14430300691320164,0.05767375366300742,0.0,0.036427551791893276,0.11702776762439493,0.20082697342658729,0.2904527092701139,0.37286932080096613,0.45770540376658997,0.5475897676454464,0.6230355511962371,0.6034342024380945,0.5548851709300495,0.5185830265700206,0.49373262978934407,0.4753582774658429,0.47555753783238663,0.4977144386298822,0.5430252973717111,0.5917054626279661,0.6273219852381728,0.6146770456982804,0.5745054388688116,0.5485179692066027,0.5422505912742588,0.5474575023632442,0.545574535909745,0.531243339104374,0.5163648894511332,0.4901644048806555,0.45464287072527765,0.4239829865601743,0.40908184645706935,0.41997855281909113,0.45400697749259966,0.5144828933106631,0.5788282682288186,0.6249496853492731,0.6006264608550331,0.5227468110054219,0.4387843381123193,0.3564725298344369,0.27146732486870695,0.1936615952571452,0.15976645926121047,0.21599402985853366,0.30300613323889714,0.3841219633434909,0.4705005516114784,0.5604103240872595,0.6450687618153437,0.7276517913394291,0.8133262960548164,0.828031869578701,0.7924246377342101,0.7946684871201926,0.8049555466588034,0.797382703811021,0.77929465847194,0.768620049588318,0.7890298409921168,0.7980212400848943,0.752942140981981,0.6995951176499926,0.6575346780458677,0.6183813472245119,0.6012887836936895,0.5968621891231158,0.5823248784475179,0.5806434927866426,0.568235926255489,0.5666893196640121,0.5484059142749775,0.5261241244630945,0.5321983907731511,0.5510071304912911,0.5805321201599491,0.569198704714329,0.49835377599622066,0.41818937607057327,0.33042129718764257,0.2502164348059308,0.1633330791204255,0.08593377325756557,0.052576053848672144,0.11084453848001452,0.19830244771470062,0.280766857603729,0.36554282993433485,0.4554834050243135,0.5451124970586243,0.626888366302855,0.704503825502427,0.6968967680217977,0.6370064382125709,0.6005694266789685,0.5872970367349677,0.5785634148412486,0.5823988172946206,0.586673612874302,0.6064409949501754,0.6218098843853237,0.6481275340306214,0.6347237160873849,0.604154056042139,0.5850716391937645,0.5742074308387564,0.5705644413664916,0.5679013804012756,0.5636582692648331,0.560297566679081,0.5442645973544928,0.5192718444330826,0.5109337004529018,0.5332073512724398,0.5643892173568898,0.5876152862024548,0.6267512963666653,0.6278243361864455,0.6120281898624216,0.5776198489481004,0.559462259683021,0.5732423707271603,0.5941231245363403,0.6044875107606915,0.6068713371630652,0.616720429619235,0.6190934380398281,0.6320771239600271,0.6552490182143298,0.6904268289398743,0.7034982997705359,0.6719017382837691,0.6462635343991787,0.6379371329960681,0.626578776561012,0.628527378186978,0.6367706149352268,0.6657633393803224,0.7288558227389823,0.7861293482744733,0.8524567450000953,0.8637897057905242,0.7977996458462122,0.7133414937483324,0.631870619606014,0.5423095226628083,0.45244660299538575,0.38573967805925036,0.4350864997856758,0.5149346841371429,0.5943933505180323,0.6472672130114969,0.6415694913689192,0.628558616244651,0.5958142653306628,0.5734389622389531,0.5722208908657185,0.5934958317896679,0.6071036566773997,0.6174243495878222,0.6256880500283579,0.6449407958722586,0.6455353828668333,0.6534575978978883,0.694535372174151,0.7383119461344123,0.7898831433653346,0.8367955839277623,0.8451746935469402,0.8221471452741291,0.821205804425577,0.8452228057968354,0.8570019785525174,0.8437207269304079,0.8392376471869094,0.8784931526751689,0.9507059907384268,0.9999999999999998,0.9653471038140842,0.8859401383238146,0.7964873751771753,0.7141242749878309,0.6292280813871904,0.5398096725467905,0.4906103414975924,0.5575361308947386,0.6382643800373422,0.7107903844375827,0.7210007117869541,0.6682106674017987,0.6096096968886406,0.5520239771385007,0.49169625939639006,0.4559564479585416,0.4554256737428297,0.4828939434924997,0.5150266786075723,0.542741762546467,0.5608666400380271,0.5740862783562994,0.5796391899185418,0.5886368136710647,0.5871950401256452,0.5900625265985482,0.6229995683102787,0.6629920859787222,0.6791329125018402,0.6491184172292199,0.6074011206298693,0.5590254460238049,0.5225265334845888,0.5170597055374151,0.528891838513238,0.5540685078039329,0.592602888873828,0.6499273446856135,0.7250396281148668,0.8000639400337282,0.8287253037748556,0.7699329012303118,0.6904807012409913,0.601715569256249,0.5121743194772874,0.4364268559526141,0.4455042582090383,0.5283631476556321,0.6008725316843282,0.620476379411812,0.6046616536649563,0.5818192291205271,0.552724122646161,0.5533475010261812,0.5816329394397226,0.5920170083374792,0.5951163878326942,0.6061401184719151,0.6167617491062194,0.6168417682401965,PM
0.6339033711478388,0.6654254587264115,0.6152919929434137,0.6058604008155939,0.5822588762334444,0.5798234265477697,0.5992029393755836,0.5769608634391368,0.5101056071178771,0.45987759779408144,0.4837232404189473,0.5795591930701063,0.6860359692968094,0.7526260953410064,0.7479283139889956,0.7357707891995497,0.6720166486223924,0.5673301285853647,0.4263863121659428,0.4107146325132316,0.5381580546759643,0.6541954626157445,0.5696090796511832,0.41348366072239173,0.26413655226717214,0.14328208712041768,0.08264263554858786,0.02660741392283761,0.0,0.04001705155840796,0.12063534224293804,0.21643848851713354,0.3315061395418324,0.45979627016488145,0.5724944022392426,0.6445441075648386,0.6564394490266094,0.6357824689464016,0.6402877000725606,0.6555188813855697,0.6177151262391822,0.5536623084852854,0.49356698563268786,0.5185492255113981,0.5989276880767118,0.7189462518904168,0.7682046445887156,0.7945021594211843,0.7882344788332691,0.6859156115600138,0.5306997090534589,0.4005677861490584,0.38133200839495185,0.5307876285054265,0.6910609183778229,0.6742167686918803,0.5093233415479519,0.3835461685089765,0.2978083307590529,0.24579316028297704,0.21299511417851846,0.2114215164311224,0.24404644427337807,0.3347448596758742,0.4439462772459093,0.5713559424759946,0.6828649114122802,0.7742389774187401,0.769063664183987,0.720032496669476,0.6843639266180377,0.6586630362332704,0.6525995446503536,0.5996112412268575,0.5130474650118346,0.4384331071404972,0.4334263824541864,0.5026395496976699,0.6124294098954408,0.6659836243652135,0.7000737147199905,0.7159056850611636,0.6849838736633727,0.5610619116248703,0.433863355415121,0.34040289069507246,0.4101964178737916,0.5804975966694892,0.6334240867112912,0.5068898936580473,0.3571181361575171,0.2430768953988851,0.16523471720273708,0.12157882268550146,0.10100192981172551,0.1265924908322935,0.21061355781822844,0.31391315390810437,0.4300387889646675,0.5512037814462056,0.6621817592262325,0.6810608580727511,0.626535449047517,0.5915696392323246,0.5875637659568858,0.5868858700976887,0.5537656608139674,0.4780043321767957,0.4222047603511827,0.44972813653126664,0.5205187390075432,0.6497843874465303,0.6995668954056278,0.7325492089701786,0.7434636375776309,0.671380034447,0.535835040198088,0.4520774214813601,0.48142880491404494,0.63870494570057,0.6966042880354637,0.5631324843847896,0.4114160221407248,0.298259103698185,0.23023295461493376,0.20516641336225305,0.21938975325380294,0.28413072685019625,0.31932238493072695,0.3598662605148988,0.4586325517914229,0.6083803077939924,0.754841076522772,0.8734629333546824,0.8782867797760687,0.7403184192374299,0.6817457008511267,0.8125608078770012,0.9497655020709654,0.9087779630439465,0.8470996330269704,0.8291152363876018,0.780272970143634,0.7172181281717078,0.6024168323125334,0.5383619981157945,0.5723013619484325,0.6419006102503175,0.6703459749918839,0.671164309108935,0.6744900314816853,0.7043667754403273,0.7606148683721132,0.8057568009069476,0.7682928541428806,0.6686224648293839,0.5498547864984324,0.43342607512138986,0.31732740663034864,0.2251566824021367,0.20244017297836425,0.2389505162385639,0.29131177226662697,0.3914168313576205,0.5534901546862114,0.6990615273806764,0.8126081020152851,0.8205102553943107,0.665945942684619,0.5856527116631387,0.7091712882256216,0.8629399662442001,0.9249738245690988,0.8437755516466297,0.8101412805965422,0.7852614834558809,0.7382742062584517,0.6599453530675641,0.5680503742196281,0.5741749519806278,0.6502277351635986,0.7236735471105318,0.7418414656764938,0.7655596473067421,0.7895272420982868,0.8406047525027347,0.8780195838519287,0.8708512593544775,0.8015776350784849,0.6830363369448458,0.5608253354999908,0.4507661317205054,0.3600488875591079,0.3119409894493117,0.3248015697953335,0.3759998816778758,0.4698235387979173,0.6057892358352577,0.7567493132510599,0.8823762451077188,0.8862982854172934,0.7465428871236934,0.6468865332565237,0.7616571392011791,0.9365904043135469,1.0,0.9289689366954832,0.8946239272757515,0.8711260964234411,0.8275106955443929,0.7314995772060948,0.6372094861795894,0.6436725543264696,0.6985618877045114,0.7393779004949685,0.7574624316709846,0.7508571212461082,0.7408970620314399,0.7407972381281134,0.7291603654486414,0.640955107814241,0.5366208739483795,0.4158688964284254,0.3075648887665796,0.1949286560836283,0.1275463093290865,0.13763475881569498,0.18431434090756937,0.2571126196931157,0.40438773197025313,0.5672534719090461,0.7134695214817661,0.848424774705073,0.9596065331421846,0.8942207876961499,0.7239392702242649,0.5878906824142129,0.6646956297823037,0.8247527535593555,0.8911254710160366,0.8560060078098513,0.8735992868495508,0.8486973372795825,0.8011258501823653,0.7044495239894619,0.6027993908126366,0.5947724757390391,0.6624407690305505,0.7301869977108586,0.7094344316425998,0.6933060436860297,0.7180179766893975,0.7445445676156668,0.7836501074996018,0.8047429120964518,PM
