0,1,2,3,4,5,6,7,8,9,10,11,12,13,14,15,16,17,18,19,20,21,22,23,24,25,26,27,28,29,30,31,32,33,34,35,36,37,38,39,40,41,42,43,44,45,46,47,48,49,50,51,52,53,54,55,56,57,58,59,60,61,62,63,64,65,66,67,68,69,70,71,72,73,74,75,76,77,78,79,80,81,82,83,84,85,86,87,88,89,90,91,92,93,94,95,96,97,98,99,100,101,102,103,104,105,106,107,108,109,110,111,112,113,114,115,116,117,118,119,120,121,122,123,124,125,126,127,128,129,130,131,132,133,134,135,136,137,138,139,140,141,142,143,144,145,146,147,148,149,150,151,152,153,154,155,156,157,158,159,160,161,162,163,164,165,166,167,168,169,170,171,172,173,174,175,176,177,178,179,180,181,182,183,184,185,186,187,188,189,190,191,192,193,194,195,196,197,198,199,200,201,202,203,204,205,206,207,208,209,210,211,212,213,214,215,216,217,218,219,220,221,222,223,224,225,226,227,228,229,230,231,232,233,234,235,236,237,238,239,240,241,242,243,244,245,246,247,248,249,250,251,252,253,254,Target
0.17822807390371143,0.21796801126016652,0.26430920358338295,0.31732427738966207,0.37305554596968404,0.42429930659547166,0.476095049761581,0.5236803800588516,0.5663826798550913,0.5908159465111482,0.5745859758623912,0.5301660484756727,0.4766505256831768,0.4230817479217652,0.37315712722387495,0.3202542568962299,0.26726641065018164,0.2192077764023459,0.17238204402747748,0.13414622248279695,0.09842931246905406,0.06329886830755971,0.044675983194432334,0.031400848075443744,0.01738229829810134,0.0038997815264090185,0.004715055976657112,0.0361623960678088,0.09251729815697818,0.15386020240997356,0.21173991297976658,0.2559493999768332,0.31708685754472876,0.37672078376542295,0.42278815891094945,0.48076111659279697,0.5514656950821744,0.6228880662826728,0.6943105734929746,0.7657322303118845,0.8355373811822111,0.8929476010701163,0.9414146760664308,0.9351546721974686,0.8774722135778839,0.8182177405067557,0.7513535927828281,0.6802146693463582,0.6193948263409155,0.5541914214297861,0.48292579844721173,0.4202428270942624,0.3572467379871149,0.3022776319110583,0.25515632632539553,0.20158479097219617,0.1442072579972109,0.0860032577870884,0.04683386759894592,0.04483162393982587,0.0481582511358436,0.09119089752380738,0.12322729667491616,0.11513425367596941,0.09763062624578422,0.10341910211102245,0.13427345146224345,0.14825592485902117,0.16178964421399034,0.16465932052865728,0.16926631967026262,0.1781910098353725,0.17531828199869448,0.18170856660371904,0.18176777594761573,0.18357345650532597,0.2108527838112746,0.253340496193851,0.2996467254178219,0.34339819860047704,0.39588961419002633,0.4494413359398015,0.5015640932643461,0.549320142115965,0.5948610456147558,0.6296593334917273,0.6285858444140402,0.602430112902594,0.5566551163454858,0.5031447914844618,0.45205651525353474,0.403934852904106,0.35090138696370055,0.2973879418947356,0.2447650589767827,0.2017986635277409,0.1659434097958159,0.135657032128762,0.12418466595390587,0.10011244180457313,0.0961275859287003,0.0888889953710379,0.0891180870203736,0.13231876014825072,0.18775062986835067,0.2464180406004184,0.31318116543026386,0.3819438599583336,0.4400020921864707,0.5103174737559963,0.5817395729368888,0.652533186240063,0.7113751407563775,0.7788982581585642,0.849087381952697,0.9072159922187848,0.9709409534375624,1.0,0.9725865233900826,0.9121783847655718,0.8410677649728004,0.7786877413186324,0.7151058201335547,0.6449021851042542,0.5869144606157142,0.5180343271163523,0.44680627489061475,0.39017134872770853,0.34787084322542405,0.29448188260667285,0.23716547065334792,0.20285736759603212,0.21323679513999938,0.21324325333985428,0.19195588313856993,0.19727518268783273,0.18987135844430014,0.15986671199159508,0.16355076160174153,0.17946965553255367,0.18069243689426795,0.1697530555723099,0.18009149414796166,0.16951143937823865,0.16389167302427765,0.15183323962855155,0.15915115987616302,0.15016804621658508,0.1504652622265703,0.17091065174876308,0.19759230065946687,0.23272160113413998,0.2744750929669273,0.32256628560259326,0.3760421319923428,0.4333677664447877,0.4819242918102109,0.5295579080053159,0.5747377243178056,0.5884722053760112,0.5630911786078201,0.5174644687208523,0.4621927551668503,0.4075057396805004,0.35767529405070775,0.3100732576660099,0.25974623653693785,0.20970310022773475,0.16707159801962046,0.12471237498577414,0.08905721229968888,0.05678937900388137,0.043048121560530284,0.02926174579048757,0.017670660841893504,0.0001624798231540936,0.0,0.038626661239714366,0.09780292365648258,0.15772367191407222,0.22365072250079887,0.2943657703675444,0.35296673544448476,0.4207783717410276,0.4921819772917635,0.5594961442495001,0.618585552169229,0.6893410200631251,0.7581958813180538,0.8161931254789074,0.8808627438654146,0.8911623585040642,0.8346317558941769,0.7765127610077323,0.7079477000839738,0.640957118534351,0.5816693335551943,0.5110222982990273,0.4497480337454127,0.38502104093486667,0.31528711481800054,0.2702796967921941,0.2267252208395223,0.17014030547785852,0.11583999966860947,0.08191366633145192,0.07498215645854422,0.05912363178917568,0.05459936569075685,0.04418574217233795,0.02418607930318295,0.016486079420306332,0.03486714212679809,0.06023650350401599,0.07663308905523403,0.07905998715311746,0.07906340259445788,0.0790633827872047,0.07851207289821716,0.06644337763112862,0.06197619553515832,0.06676613572868151,0.08411964998119004,0.10884781246861541,0.14450507289056436,0.18986212491277632,0.2370718913329295,0.281292353165691,0.332653238869121,0.38384379255142287,0.4339267163253826,0.486740421579098,0.543510642312167,0.5824854485426503,0.5885878395925044,0.5547341737090918,0.5107621789129344,0.45935332600710055,0.40822281866263976,0.35460598502631857,0.298734575593282,0.24642666046897288,0.20224366681298145,0.15489505725470964,0.12281155541520317,0.09628030197717363,0.08009802261745946,0.06406469587270802,0.056970850982819954,0.0453913731729072,0.055707676076899304,0.09525675077824891,0.15230662520436233,0.21675140663386738,0.28130489153313354,PM
0.07069109756515535,0.0437090291558595,0.015251883463189508,0.0,0.00412223297186054,0.011188871095734965,0.023553188974447248,0.05336865185584072,0.09013995752560677,0.12779608054886982,0.16659590087614262,0.20871535241726802,0.25282216512987143,0.292620413623897,0.3340045486587335,0.37304994572919026,0.416279191123883,0.4566487963903165,0.49810406739160884,0.5424003749753528,0.5854580613927023,0.6246204806393647,0.668420372854212,0.7127394042670063,0.7547216356271054,0.7946255540158957,0.8387757367676623,0.8826674178399649,0.9218943719870998,0.9600768807624989,0.9611471431975422,0.9261703949409443,0.8847381546607336,0.8422356440926135,0.8027708485513303,0.7588349070991456,0.7181383133823789,0.6770200688578629,0.6327332389638403,0.5883928260727049,0.5440524131815698,0.49972165321407136,0.45715359463211214,0.417707206818247,0.3739093631291699,0.33664528459401155,0.30481124672896276,0.263220916415396,0.23029811353196528,0.2178122719930451,0.209779153315226,0.2037463556069381,0.19096737237989014,0.17708340776565334,0.16985859883960597,0.18353883264635962,0.18625918540501463,0.18417653640011622,0.18889810283979758,0.20089477102103714,0.21611931242597127,0.217410860533646,0.19661147853904337,0.16697112919441004,0.13528326892567022,0.10084653474973249,0.06756185111579116,0.038167812791795264,0.014691269502433046,0.006810115664843908,0.011477741317102552,0.016339703966206542,0.03916212563783272,0.07316579706491466,0.11199813003812698,0.15010649200481696,0.18863171045387372,0.21923947342944072,0.25692574795866596,0.29605446553483206,0.3380464598468198,0.3775470159867178,0.42109543842653196,0.460279682922081,0.5032375741324937,0.5451288083488781,0.585101244069286,0.6292717480327417,0.6735215375063479,0.7141534270130414,0.7553401250473339,0.7996279157380952,0.8439547390392061,0.8861840768981217,0.9255204998189375,0.9512720406687067,0.9280551397011556,0.888757249213147,0.8476808139897833,0.8071145431292572,0.7629981375754735,0.7226851661143141,0.6811593563800671,0.6369811476290146,0.596657211680202,0.5551432322987153,0.5109641820373176,0.4708291644366127,0.4366088501663954,0.39882161203129374,0.3586122097664506,0.3171248842483385,0.2739205795023296,0.23616704083552076,0.21590785808494584,0.2117296803705313,0.210223403267207,0.19955568457138817,0.18491379479432846,0.17083908722588714,0.17741929397279654,0.1859671980350297,0.1870602042360492,0.18754710166496014,0.19856556717916174,0.21675258451683233,0.2270496764159713,0.21003382734629006,0.17972501304895672,0.14821554515520696,0.11723711599185882,0.08588853610309766,0.05696287933602329,0.028812030865261073,0.008068891693849722,0.008175681461395357,0.017087216089030965,0.025604452016045665,0.054252034085829015,0.09103985649709068,0.12889163627311628,0.16848992719221179,0.20755822136760682,0.2473209036724633,0.2914271881268551,0.3335380418727294,0.3733391842640943,0.4174104690762086,0.4585852283785785,0.4992271344693089,0.543427074797316,0.5846131828126908,0.6252441244157689,0.6694901405009153,0.7130444911157188,0.7520977199851546,0.7955088094618796,0.8398225241776505,0.8816759764450621,0.9213231489113884,0.9502108958656217,0.9343203601802408,0.8972423583305436,0.8558839832108269,0.816200926372028,0.7739897020080551,0.731311057912378,0.6919442519195258,0.647980240664227,0.6036399940743038,0.5592995811831691,0.5149592098673357,0.47085612475567795,0.43111496233633484,0.3890958701764695,0.3491187623791294,0.3072608905783121,0.2651085310020074,0.22880266184917608,0.215359703750015,0.21373980151984706,0.20737097190720077,0.19349075672298754,0.17584637397453484,0.1695738099044959,0.18343499435444333,0.19177974184907542,0.19420977084179847,0.19946076934329549,0.21303094017492819,0.22659501159483608,0.22061739623069676,0.1935805784322422,0.1645744313059192,0.13054977977747706,0.09888917383333218,0.06442022335590303,0.03705088748738983,0.017456142378387995,0.015188713228575734,0.02326508341580491,0.031342715632445506,0.05584745703138605,0.09219224787588787,0.13089702209046195,0.1689633613346515,0.20706392939586915,0.24722198557183606,0.28627305406600967,0.3293314324087264,0.37106274371164094,0.41118091227608766,0.45453007184248007,0.49357372016886747,0.5370471393586949,0.5805518716231193,0.619596603041539,0.6630643557671614,0.7074031536095071,0.7516417816604202,0.7921324226098765,0.8334649437498594,0.8777593496057461,0.9219638963552856,0.9621620616617712,0.9998099536642906,1.0,0.9656344279848472,0.9228545108987585,0.8807965865959548,0.840958337311857,0.7968271733226586,0.7533027976934021,0.7142665637259991,0.6708082846802625,0.6266544596522596,0.5867334119305654,0.5447943994360105,0.503886186808443,0.47188476350107766,0.43262827765737377,0.38885014718794,0.3495560174505259,0.3067721824460359,0.2638697011267108,0.23078116434738538,0.2209939840458106,0.21424210689361445,0.20477534938889286,0.18931047506667498,0.1747529669949497,0.17037975495254587,0.1834867520553809,0.1869713520174192,0.18369762057323036,PM
0.1571059545028637,0.18080669399455584,0.2094284908370796,0.23970986416197038,0.24974105230552035,0.23211644256771757,0.20371147150876712,0.17327458614540459,0.14273371421829806,0.10957590217630764,0.07979241344582855,0.056619117402919805,0.05573049647754824,0.07448463319941245,0.09909277515555415,0.12242860160278468,0.14145606767983132,0.15976569510634753,0.17726768570658225,0.1955451802565782,0.21426838643846335,0.238542378930241,0.2685013828201013,0.3015795659451821,0.3363929941749637,0.3757624831893742,0.4164161074574344,0.45534126462358726,0.4909820336619892,0.5306481289379883,0.5659303463563123,0.6055023881704471,0.6415447593376289,0.6682752140038251,0.7062649303690738,0.7453234867306135,0.7808765121934014,0.8211629650766199,0.8618287095519381,0.9021177991439644,0.9376554566917878,0.9760497421797365,1.0,0.9823504398619534,0.9457440244440118,0.9094434088820753,0.8689337770908474,0.830020917205222,0.7943635042590338,0.7540265234790606,0.7133606117027387,0.6726946999264161,0.6320322309967259,0.5925691111300067,0.5577560329268683,0.5229135167930881,0.4838815369725513,0.44824351821498887,0.4093184759422963,0.36904812557727507,0.33350792805987783,0.29578066038804796,0.2703263780049172,0.26583445387151894,0.26422394560986495,0.2549583976803831,0.24489433795113902,0.24144526249386344,0.24662852943828906,0.24681861456509635,0.23506207539032964,0.22695524855816562,0.21531587667208973,0.20245691567138047,0.20128911983924436,0.2109059633088075,0.22113510508055012,0.23955646243812434,0.26172890457304043,0.2884464829408897,0.3206072727497917,0.34877939855002893,0.37854168623593365,0.4018568934086473,0.3980872686135004,0.3719020124736687,0.34003769687757646,0.30720829765253566,0.27483695832458,0.24390096108336579,0.21367062565670758,0.1862955715463699,0.16034717290895717,0.14187157019993646,0.13223452558832616,0.12462243570385567,0.1183991865451266,0.11063992048593141,0.10844486607229542,0.13285859148714607,0.16494246803872015,0.19977094720068855,0.23525626047280035,0.27232581002972944,0.3092853989019171,0.3494596533402592,0.3849081433865793,0.42411153323676576,0.46427898964655623,0.4991962159644312,0.5298909900164637,0.5612793285237971,0.5990732058675423,0.6397110548511646,0.6802609031912563,0.7168591462829081,0.7546418791415632,0.795276471785916,0.8353063218097849,0.8697306446195787,0.8848516979029819,0.8565085104317367,0.8162045750685187,0.7787733220517736,0.7418394457790893,0.7012526913586592,0.6606334095169628,0.6231104906681386,0.5862643185623138,0.5456868692732832,0.5053371615974411,0.46968072842723596,0.4317530988906242,0.3965443629397849,0.35986635986348126,0.3229080380225331,0.2823840804412232,0.24518853956410958,0.20802925849295684,0.16845654747480476,0.1332390948004274,0.09833332309432619,0.07440932333676797,0.055068395416315585,0.03754537688398263,0.019082329467258297,0.0028845849527501244,0.0,0.01694317919415156,0.04103701017826922,0.06559060815591744,0.09216896742983849,0.11719868805198552,0.14066881661495012,0.1639260254435344,0.18707532454360631,0.20537718666089333,0.21331580254431448,0.2127365997718449,0.20622201137376073,0.20778949736261998,0.22454613370639986,0.24641619577010587,0.26955375869923315,0.29509384176695796,0.3237493506320799,0.3538284910070746,0.3840337214054246,0.4136956748611986,0.4335083077907813,0.4218469203201609,0.39507525345517003,0.36319657342138334,0.3350060074961594,0.30998936276314293,0.27754566731803565,0.24311449319048184,0.21532584805678345,0.18992109105740296,0.172160678143372,0.1627375052485318,0.15306478194190443,0.15313396029509607,0.16125504945297897,0.16943225311753896,0.18738129020003957,0.21668021772575163,0.2432425022804483,0.26921183057883624,0.29632896928551755,0.33526609711653554,0.37071265056938274,0.409916322614035,0.4505769887867508,0.49122779619372037,0.5295509094989852,0.5613920343295582,0.5926063284473895,0.6325644710024123,0.669938833553088,0.7069248525283076,0.7475132973629357,0.788133291477215,0.8256016649367233,0.8624959052020786,0.902607837232871,0.9289741247766108,0.9143842215719717,0.8793071664850074,0.8412625200822619,0.8006405792067708,0.7623311506593851,0.7262169594525474,0.6857272630856215,0.6466482248234091,0.6111101963914312,0.5708211067994051,0.5301552514619756,0.4894894041872453,0.4491120225396321,0.41340257943121284,0.3762669121643525,0.34067127731447,0.30045229357840286,0.26376520813053084,0.22629013080842686,0.19335091726082987,0.16630159481533502,0.15326475564243114,0.15134846097325627,0.14618335865791,0.1462361296975081,0.1564490204236615,0.1718593930872463,0.17695245388771164,0.1790572133716799,0.168631474281022,0.15731696721880106,0.1503885572587651,0.14365130976446805,0.148522426161251,0.16215584300238284,0.17859633629724736,0.1995297644645999,0.22845645284371274,0.2577183849309679,0.2866999305901885,0.31680729782584316,0.34477251976626433,0.3675073944959224,0.36173015920362594,0.33309574292162836,0.3025961424387775,0.2711850982701871,0.24009150541486313,PM
0.003841415044699703,0.018030516850107814,0.04868642423224556,0.07502437202328993,0.07519008255775605,0.049402331290104406,0.015998244053467836,0.0025420429195106564,0.001513145607302313,0.01987034376598995,0.049325399807784054,0.06915644663292397,0.07358919143359532,0.07968920419527747,0.05072447608328168,0.02331264345767048,0.025294462103994775,0.01381929237162427,0.0,0.01305794940892313,0.03845109927711987,0.06788475939733951,0.09849667700508902,0.13044570856502746,0.15882809278116938,0.18890404456328613,0.2200502041218546,0.25346269026457136,0.28682744316715936,0.28184057674407303,0.2524784351985443,0.22656838610661523,0.20435127924626473,0.18590747723196066,0.17345698747718585,0.16900005236971039,0.16320120546585448,0.16289181337941439,0.16337109320289178,0.17023312443643346,0.17822978340760365,0.17971534078168094,0.17971871808625584,0.17971871808625584,0.17968775485863553,0.17508612542078494,0.15725428356674476,0.1388548630260058,0.13433421932330036,0.15785648163821842,0.17530287431122882,0.1624334620111456,0.16614935069447112,0.17177544812639423,0.18652750761054793,0.22250296169109074,0.25940761118809896,0.29801589239129167,0.3375606887265521,0.3810832114067406,0.42450315538492966,0.46283112669131743,0.5034480142511888,0.5470117771791017,0.5905973081763749,0.6341828391736484,0.6775924926009036,0.7158196600093947,0.7565458263037437,0.8001114049460094,0.8436969359432824,0.8872824669405568,0.9308649819202479,0.9729685157331724,1.0,0.9752685958246161,0.9318909920435168,0.8889008824461486,0.8564384908062657,0.8179192318444612,0.7744446880680991,0.7350105636018325,0.6955521996353846,0.6520327803315022,0.6084472493342286,0.564922874661064,0.5253424301141292,0.4860258522098764,0.44251868356186774,0.3990722181270332,0.360513659648229,0.32014451844295233,0.2772709600814165,0.2401377046940456,0.20113994731731433,0.16863444093128566,0.1400303580818245,0.11583660536944862,0.1030960560601859,0.09296296022445083,0.08231601520799425,0.07365198385154237,0.06983243066440736,0.06901880910072711,0.08942911465349734,0.11395484486066199,0.14276499256374087,0.1718221593513578,0.20112386318433906,0.23305581591598434,0.2663239165557272,0.29088042707133055,0.2740636766905067,0.24420837176711885,0.21828286648401551,0.1965387786004622,0.18203608452456166,0.17460208226612073,0.16557816645220513,0.1561534834420566,0.15462642575439411,0.1598109112637891,0.16829437968877725,0.17128353721408485,0.1716285900824457,0.17746364602651576,0.17970896831665906,0.17971294559571782,0.1772404591303216,0.16021832408645764,0.14314098131867037,0.14570510595520325,0.17016799906011926,0.1748442283989151,0.17548482936958232,0.18055187641338422,0.1949514113535442,0.22936484660579248,0.2662484504764351,0.306491623941334,0.34441591745754985,0.3877467932490799,0.43036951497601605,0.4674519322575392,0.510091894509386,0.5536766350605922,0.5972620755551126,0.6404765029154342,0.6780737138451545,0.719611665024197,0.7631907318302269,0.8067762628275004,0.8503616858857095,0.8935497348280683,0.9307154918049627,0.9479936012532928,0.9114172426376306,0.8678487971771989,0.8242632661799256,0.780766362735908,0.7417068176761528,0.7018740528421679,0.6583347004075646,0.6147491694102918,0.571184282468731,0.5304997461684695,0.4922341772750649,0.44882060363793075,0.40543041566975546,0.36718376244464834,0.3264565001934414,0.28370091000293196,0.24677219046971777,0.20974377977451608,0.17712613507976327,0.15006718654033957,0.126721735932513,0.11581876196119745,0.10563546335153551,0.0951498755197071,0.08749344097093448,0.08762497371745503,0.09785057647496465,0.11757061474833685,0.1436081503584905,0.1722184537231417,0.20127506923818217,0.2304863635085601,0.2644642436700395,0.2810801730759933,0.25801506412081276,0.2317837386974695,0.2058401186915002,0.18476974364365817,0.1734838257706126,0.16772951370141476,0.15919232223272184,0.15457600683471795,0.1546303997467966,0.15993063817302788,0.16839507160435097,0.17282745491212492,0.1791479014427826,0.17945443179768628,0.17480511278196365,0.1766876199049563,0.1631350220332366,0.1511850303402067,0.1550352909180075,0.1743089614713378,0.17251345714386113,0.17529108320987974,0.18322777282236702,0.20552462123188975,0.24133337807729793,0.280889340576743,0.3181974105040588,0.35941780567506143,0.3966195586448493,0.43793474299299007,0.4750434911531609,0.5175818799761833,0.5611627513831228,0.6032439494340451,0.640510675742751,0.6835096587044309,0.7270949173631438,0.7706804483604162,0.8142432644476878,0.8537948132824438,0.8855365022283417,0.9185482007942016,0.8967364626124374,0.8534632623438818,0.8098777313466099,0.7662922003493358,0.7227066693520614,0.6791211383547877,0.6355356073575156,0.5921023319539289,0.5536168762689595,0.5131633221904592,0.46960704158515454,0.4260269160741177,0.38434761405781237,0.3477159596517989,0.3161455809917686,0.2795332627738203,0.24226997512635173,0.2062766556604736,0.17254924535570226,0.14392553012459142,0.1220743624786591,0.10834825385449576,0.09967765440033927,PM
0.09833937245256674,0.08064487709662793,0.0731488050250102,0.07295480772674967,0.07864621950388062,0.10145280740484863,0.14144479060868242,0.18444489572829226,0.23155274226824218,0.2765929102357647,0.325938307038496,0.37651766966439726,0.42113825280960104,0.47148755661154995,0.5220665051338671,0.5666853987295157,0.6170445560620255,0.6684225025366142,0.7145432672365613,0.7626311528196581,0.8141478247770224,0.8656543104007803,0.9114210026722716,0.9187133734683499,0.8823032037817722,0.8353067947107884,0.790596212523329,0.7399100126721629,0.6939191476759516,0.6456749427617385,0.5943566630828763,0.5483789333143898,0.500119586451693,0.4491048602536263,0.4041399796906806,0.3548556689716169,0.3092917074342967,0.2607088150377781,0.21436374953290604,0.1670497426179931,0.12326249547116763,0.0894063465894337,0.0663915813415823,0.0651607467034776,0.07872589280059672,0.08775700499621819,0.07090806957480189,0.06583322855337359,0.07232859465058383,0.07283835288230378,0.07283850191547359,0.07283840292263832,0.072450593104608,0.06854930795167613,0.0804377510918246,0.09668121186653056,0.12054798382731446,0.14943162405280797,0.17920204217748292,0.21167525024379774,0.2363290336887094,0.2382326988695267,0.21288580326908435,0.1772520831737454,0.1413436164191597,0.10677468568369175,0.07664341313205814,0.054011241281588296,0.045770000877401795,0.043794133997932194,0.04363934680638981,0.047600582678021475,0.07517688998434124,0.11541964771173374,0.16055714347111127,0.20500903401275483,0.2530190914281847,0.2983375345941923,0.3486478202580754,0.39327847434277885,0.4435753011414987,0.495070859906497,0.5426731822337565,0.5854776443836376,0.6237951826729256,0.674047097237608,0.7250679066102927,0.7699143388185585,0.8195722094849578,0.8676340314194277,0.9112025056595252,0.9267932640823844,0.8943224249952078,0.8471875627673846,0.8096820249816519,0.7700722972231135,0.7193226272107331,0.6736431799543801,0.625167284817314,0.5786984131098478,0.5310077437725473,0.47984374440222877,0.43455595407428715,0.3854882857476698,0.3347410468322496,0.29010193526199624,0.24042673665840675,0.1954401132859842,0.1472371278542104,0.10316954447862114,0.06740469388102555,0.06316905194919209,0.06660732999684904,0.07732348058359562,0.0701431050359953,0.05877078696956328,0.07014390222609324,0.07619076335913011,0.07522150841147845,0.08253008861876787,0.09011500402360917,0.08930985495477461,0.09054259597064807,0.09315502576358847,0.10627329922330975,0.1252221729097771,0.15273270496905367,0.18355973267063108,0.21326295716449906,0.24052484560089082,0.24651635289965723,0.2232159750116267,0.1917227498733436,0.1561981482603445,0.1203713452426396,0.08602787307907267,0.05466963181488094,0.0314038188536514,0.018518450807043507,0.0,0.0028918000620290485,0.016209106301838805,0.0421562094344996,0.08285684643951563,0.12607070635480677,0.1703732225851211,0.2185884482116498,0.26533427741855786,0.3127355413571251,0.36411488292180305,0.4108724095633316,0.4582907161449419,0.5097657664784083,0.5592509651599913,0.604256419932441,0.6553303369330616,0.7068131962043065,0.7539935998117331,0.7984537105300333,0.836340768989654,0.8854019656741587,0.9302065992090234,0.965054270793579,0.9521494224524027,0.9045203703230733,0.8555849139474909,0.8101957493754854,0.759137847812533,0.7130100422872547,0.6649197665413005,0.6134666609238808,0.5659460984840128,0.5192866052334586,0.4680303218806092,0.42193065467252366,0.37383500669149394,0.32544786782220814,0.27963668274963593,0.22955018655076365,0.18491856130802042,0.1350439011935758,0.09179092983482007,0.06032728165313439,0.060446487870357446,0.059619835861381976,0.07291585732928141,0.07840481703578939,0.0907423143496382,0.10017321291323023,0.10386740817220885,0.09666684329355557,0.09116792940813934,0.09100861100879931,0.08889307049652762,0.09403827103583406,0.11925764791616422,0.14164047055553852,0.16884416051948348,0.20021536573599685,0.2379194539788141,0.27019334319641564,0.2888844658562202,0.2784459896259306,0.24734793202803473,0.20653034818519034,0.166813180159894,0.13083100927475289,0.09792057188759706,0.06835882435894214,0.05213137964923953,0.04142944357448419,0.036754032591335806,0.04427027030865105,0.0684272578369638,0.10661917024327328,0.1491362498126101,0.1932833926213191,0.2419402272996396,0.28689878018985726,0.3364188797222043,0.3874800454595959,0.4324413997065091,0.4819750239277667,0.5335125697016869,0.5833805027967027,0.6279787301887061,0.6703037130726646,0.7126669751002095,0.7615432696178139,0.8067983712170541,0.8579965404686303,0.9095453456588665,0.9608779360703763,1.0,0.9919648803598786,0.9522694019976639,0.9041205168509214,0.8590545005670878,0.8082405701278752,0.7628183810044473,0.7139225109810012,0.6624215733523173,0.6143670718564287,0.5682155501071282,0.5168328585383364,0.46585834333848064,0.420988052530487,0.37130512938630456,0.32328888681924384,0.27711059136101324,0.22719792391607663,0.18253133357470275,0.1335787069035974,0.09140596322721839,0.07331266235922307,PM
0.08818054406848308,0.09331418938707214,0.10024454288653306,0.10377420552261807,0.10379438350340653,0.10379347940438066,0.10283585091786929,0.09281423615232076,0.07616685840825244,0.05672134441368559,0.03358429994553647,0.011960408446455295,2.3506647841786688e-05,0.007368825582000138,0.016830117424770696,0.02595602260339369,0.029501231378840975,0.030374846271853384,0.038732848174032775,0.048032940431312454,0.07025967019162782,0.09459325224672965,0.12663025533893713,0.1660582102893382,0.20682020174600102,0.24669163757389634,0.2893368291652656,0.3339928270571524,0.37239663089133335,0.41825541609121264,0.46264579094850355,0.5012430483029673,0.547206849586656,0.593712156200245,0.6370767531198809,0.6764162943583185,0.7226741294081844,0.7686274864842437,0.8070576280453443,0.8516269724314502,0.8981418085479722,0.9442994578029766,0.9816081740194911,0.9999999999999998,0.9808167806426329,0.940076662177393,0.8989752635593653,0.8575519743650231,0.8110946180691092,0.7646159587422579,0.722409401581608,0.6820248266506519,0.6356270715700905,0.5891888748515408,0.5482205864135923,0.506626478172848,0.4601595250710717,0.41368504155018404,0.37163680628812656,0.3310993657412986,0.28492951449810744,0.24542873003819232,0.20575363085767795,0.16615340303200243,0.12123375156117855,0.0897305021998509,0.08327474801504509,0.09143453432759863,0.093180691987655,0.09275061959143271,0.08505405578283942,0.07987948979898962,0.058764544761675586,0.04395568873275035,0.058183044087116054,0.0743973437593699,0.09023174567739445,0.09410525855603025,0.10593954542341733,0.13111813144005424,0.1619697129014328,0.18532362439363204,0.18033498723161823,0.15410438454276343,0.1268833662681661,0.1035144889755455,0.0850590852823272,0.08257722380705679,0.08257350403589436,0.08251051200244075,0.07595682862845776,0.057792671873808654,0.036921845019794564,0.017914418841435964,0.0,4.818145382712302e-05,0.019278030382786637,0.049145285474805345,0.08254437128663783,0.11743893480771406,0.15236694645487292,0.1908431895334355,0.21714109683442162,0.20805187287490123,0.17267305551694978,0.13288556642669969,0.0898224241007528,0.053618600401351024,0.040542551407454885,0.047896535398949114,0.06308726041910462,0.08774564951646635,0.12003047887622764,0.15666103214490845,0.19534166234857153,0.23502123118060436,0.27456340593963335,0.32085072582067564,0.3673701893601855,0.4138896859183794,0.4604057025161181,0.5048492470731707,0.543411782000917,0.5893533131844448,0.6335022109645212,0.6722581994125509,0.7183045403975832,0.7636694906019017,0.8018560088564464,0.8472529796688335,0.8924494241287102,0.9305796427634541,0.9700225093931996,0.9815953583078783,0.9574430478298297,0.9143499547829019,0.8760203575080177,0.8301515471935097,0.7836410517439749,0.739830417410287,0.7092374639891885,0.6754963521116679,0.6332338228886452,0.603155141716375,0.5726500751827934,0.5355068739092543,0.49611209173919657,0.44984035231039887,0.4033208557522052,0.35681240111943535,0.31339555784494877,0.27432136628827486,0.2350375140303107,0.1919330318337542,0.1476251114934397,0.11098943895249458,0.09654285527042616,0.1035071360953137,0.10379432708862746,0.1037848466104705,0.10060740265917278,0.08475347504948227,0.06903604981312772,0.0524910926453106,0.04783407911286108,0.0630272023970031,0.08025595060326274,0.08257045827791365,0.08210900717760516,0.07479793486556097,0.07781036137208464,0.07246119775649751,0.07672383635038615,0.07748064463999649,0.08242808422188519,0.086105662223668,0.09303995340644944,0.10006629383599841,0.11970757108870544,0.12136051635067724,0.10571545975537999,0.08719085816295591,0.06851667336382827,0.04796112099423766,0.038034271242242346,0.03913276645713615,0.04218097049003111,0.05293820757643597,0.061020761842610405,0.06165807421559788,0.06898383085209758,0.07657451071600341,0.097628997750564,0.12619753985237825,0.15856235036643596,0.19473738600436863,0.2361196059654096,0.27589242284695636,0.319001884483477,0.3583880897234517,0.40424537766591295,0.44306785304272256,0.4870891494844203,0.5335775427305325,0.5762624540382981,0.6162150142722724,0.6625484751926762,0.7087991985946169,0.7481590978330874,0.791507864744686,0.8376789899856496,0.8767735998540347,0.9204543135390157,0.9664349859312809,0.9925933282339161,0.9758285606988493,0.940750273944386,0.8965151991554061,0.8501740726280149,0.8101096101342826,0.7675467971570102,0.7210515138187226,0.6746017769346999,0.6335215862369907,0.5920443541858906,0.5455842777739248,0.49972190769640634,0.4613292670025373,0.4206479510252843,0.38966944989824515,0.347374458726718,0.3091175388311651,0.27101221621248595,0.22777114021858358,0.1895495391907278,0.14443134866459673,0.11657820724367896,0.12215095673054233,0.12523562280540812,0.1322135286862407,0.13114880934108175,0.1184250791203032,0.10452722656364699,0.09084189171157586,0.07365821675316342,0.08324092072462963,0.09713300822522086,0.10363934579737388,0.10283318254239315,0.09443109676815675,0.08913076672898779,0.08271292384011475,0.08257350403589436,0.08257350403589436,0.08257350403589436,PM
0.04990513544984099,0.02091244856261809,0.002339147075464565,0.001077650542868458,0.01332264281547657,0.03964140190376708,0.0714551881065878,0.10874209397198897,0.14774188407978994,0.18846455255193062,0.22613270503803706,0.2620057920602479,0.3021027926661717,0.3389986718402276,0.35968607325449353,0.3370755494993751,0.2991062470351564,0.2651112545915464,0.2322843432946069,0.20463118572149352,0.18426165885422852,0.1703802674294772,0.16015362466102157,0.1496024749729412,0.1623505956073863,0.17718767844833394,0.17827990786641457,0.18268874775403154,0.21347038024294873,0.2501485836819237,0.2958962502670752,0.3437919397369429,0.3874747038859061,0.4265598904812975,0.47189385371409553,0.5185243987726951,0.5672591267320941,0.6184106178968818,0.6695125655959411,0.7172234831698359,0.764898140781801,0.8159950535925613,0.8671720203951183,0.9183489871976747,0.9692935693528888,1.0,0.9645801101697196,0.9187950729763918,0.8687887309281712,0.8176152850743015,0.7664383182717445,0.7152613514691877,0.6640843846666304,0.6129077574869348,0.562209451034773,0.5161830739282318,0.4664929605651955,0.4153360073334911,0.3660719826383345,0.3197699915734806,0.26904387769808147,0.2218724634286635,0.17429286436263247,0.1288263404313308,0.08527205343808353,0.04689616071771807,0.01780685100425028,0.0018952406969869884,0.0,0.014479856181049966,0.04299644502218147,0.07579330101545123,0.11226670101648373,0.15164294239385656,0.19124887768168564,0.2266420956058055,0.2611084859047057,0.3033512670167611,0.33558164230685494,0.327644199667229,0.29573380690623696,0.260796997822762,0.2270006676691907,0.1993793933284116,0.17564407383463565,0.16407848996252206,0.15360661589938807,0.13969629253017035,0.14449904585724682,0.1637058693346638,0.17242892751098848,0.17197794668482258,0.18427721918396145,0.22379175338616974,0.27102354036625775,0.31722757972544824,0.3641364063262773,0.4083889099715241,0.4471241176043568,0.49040253167646175,0.5292686485679128,0.5745208021203552,0.6253944168332544,0.6765713410862506,0.72765934111544,0.7752343690060792,0.82303252567575,0.8682332540144808,0.8586234507495718,0.8100642324038572,0.7588992327945572,0.7088464040182973,0.662958921008225,0.6124873861389781,0.5613136758890145,0.511120382197048,0.46526064054871097,0.41490234658034275,0.363942461276626,0.31728874854702305,0.26847325049441384,0.2173204722115949,0.16684182065958164,0.12458976928779486,0.0898890507236696,0.0533121882940647,0.024462333258346902,0.0083298627433398,0.009249035213356516,0.022989971499676853,0.05143245350057146,0.08808477367511336,0.12535659968346402,0.16466530191650297,0.2044006296189691,0.2441505702852691,0.28476088825342716,0.32456133116997665,0.361449409810231,0.3570838993865637,0.32244119367759394,0.2881302747316097,0.2540122782800076,0.22016393922967947,0.19258514945286764,0.1749922316254542,0.17230476569364161,0.16049363042402476,0.14586356499070408,0.15561144388453796,0.1730706179322974,0.17428924847007776,0.1702702140163952,0.1924283165240106,0.2342233583276483,0.2810111067752974,0.3267883110602978,0.3761176568794016,0.4153669789268659,0.4584251627095608,0.5092058052863271,0.558898113782079,0.6049235490441736,0.6556204130959336,0.7067970387283713,0.7579740055309288,0.8091433111375523,0.858772066696001,0.904830966951923,0.9555259686731534,0.9979250125127546,0.977335511411209,0.926813279630746,0.8757443823937772,0.8284402907873154,0.7803528499225167,0.7292288642428115,0.6780567582291486,0.6281905171767379,0.582253136178704,0.5316438011708753,0.4804980856784451,0.4319109899272402,0.38505655301433617,0.3342968240479498,0.28774873093090503,0.23896570301681597,0.19198286365730022,0.14396598583729525,0.09796264410289379,0.053510166466543274,0.02175526442290332,0.006677294241136833,0.00864587138995343,0.026439691923024644,0.05726044603292646,0.09138806397048294,0.13372355738304886,0.1754440486405009,0.21454084121008066,0.25511948302981424,0.29493491790400994,0.33551039971380003,0.3710300537248501,0.3717353072619545,0.3383216089342669,0.30255856369203227,0.26843755965813854,0.2362758980298829,0.2060816178613194,0.18452094651538298,0.17475185355435485,0.16259938187720135,0.15103277259509307,0.16038437280514328,0.1751839157082018,0.17790500280948707,0.17894486648222596,0.20625985166367378,0.25161374396018266,0.2975327027197392,0.3448200096132026,0.38866450965423294,0.4302430140096851,0.47927955429809366,0.5303938542332916,0.5785572017895746,0.6257917892660885,0.6768506913417236,0.7280276581442793,0.7792046249468367,0.8303279822947973,0.8784021378637725,0.9246905253416058,0.9389106582141682,0.8956042669022772,0.8494808239514722,0.7987309461508094,0.7475542410018052,0.6963778708876729,0.645783271601424,0.5998247072950649,0.5499646800116305,0.4988356616608087,0.4506024530269237,0.40343185871740594,0.35254941814822094,0.3055903826308297,0.2571216350944685,0.20680344812883744,0.16103032681641638,0.11431501919223086,0.07302562956148761,0.03547140735256338,0.012359909620307419,PM
1.0,0.9816270848313512,0.9620116651488021,0.9423962454662532,0.9227808257837044,0.903165406101155,0.8835499864186059,0.8640145069418789,0.8477339807707666,0.8299461584181368,0.8103369247073499,0.7907215050248012,0.7711060853422519,0.751490665659703,0.7318752459771537,0.7122598262946046,0.6926823881056273,0.6759693206102374,0.6586398153873351,0.639046764583349,0.6194313449007999,0.5998159252182506,0.5802005055357017,0.5605850858531526,0.5409696661706037,0.5213542464880546,0.5021138595944438,0.48662977992409984,0.4677562221563064,0.4481411847767983,0.42852576509424933,0.40891034541170046,0.38929492572915125,0.3697788465172278,0.35368856383066727,0.33569207946904556,0.3160818640178953,0.2964664443353463,0.2771574651785198,0.26164178535291127,0.2428689224883973,0.22445732565025167,0.20874897995381625,0.19244500384461405,0.17632990890750666,0.16288997482510725,0.14983393115032195,0.13795689347858153,0.13082589094425556,0.12509925483576,0.1185687804115455,0.11154454173365025,0.10187281025547645,0.08775068162277255,0.07323176816096488,0.061624490778696916,0.04880815835120533,0.037284383489675554,0.03145803544574888,0.03564131321052744,0.04793651666106025,0.0614993478675816,0.07983293230340327,0.09864643735828205,0.11414893910997426,0.13297291057819316,0.14836650467262535,0.16664464362155929,0.18213646179768272,0.20129177220279637,0.21742018038161193,0.23454752946348034,0.24633139183517605,0.26029554255773035,0.27843225409764416,0.2949604373210718,0.31194231334071354,0.32733474633532067,0.34437985750150957,0.3536022682018055,0.3444430285145279,0.33132300251647817,0.3177081372238688,0.30706439942134134,0.2984098753587795,0.2877747610426481,0.28040228808753287,0.2751156059642105,0.26855016620240424,0.27197173843559974,0.2733475730764482,0.2802760396044156,0.28313980181503373,0.28508592879978634,0.2863251011387423,0.28830311847532175,0.28758160228872265,0.2828812723332469,0.27792276589816556,0.27325848109855655,0.27289877959676223,0.2770600648304621,0.277991557318651,0.2817608910204955,0.28306619115957465,0.28389164045967685,0.29309015294513807,0.30770349570166255,0.3224033900410239,0.33720859644401213,0.35480900582710106,0.374413552769568,0.39402860835398257,0.41293297635332493,0.42840733289897215,0.44762661448082397,0.46724203416337284,0.48685745384592194,0.506472873528471,0.5260882932110201,0.5457037128935692,0.5653191325761181,0.5849323389107005,0.6035645145090197,0.6191458289874324,0.6385321942873746,0.6581476139699233,0.6777630336524724,0.6973784533350215,0.7169938730175706,0.7366092927001197,0.7562247123826688,0.7758401320652176,0.7953130808638101,0.811279752895688,0.8293932813131116,0.8447163640158698,0.857797485682308,0.8698516884358821,0.8869182806819239,0.9065204044309091,0.9261358241134582,0.9457504006935046,0.9636896191952694,0.9584970304370978,0.943277474347365,0.9244064840988672,0.9047914482364344,0.8851760285538853,0.8655606088713362,0.8459451891887871,0.826329769506238,0.806714349823689,0.7873086379879689,0.771693040248988,0.7531142433041321,0.7335012881124335,0.7138858684298842,0.6942704487473351,0.6746550290647862,0.6550396093822369,0.6354241896996878,0.6158087700171392,0.5961941877602993,0.5774507463861024,0.5619475432981041,0.5425956127301229,0.5229802886233338,0.5033648689407847,0.4837494492582356,0.4641340295756865,0.44458817321313415,0.4282058888991228,0.41052631437813525,0.39092096786443087,0.3713055481818819,0.35172359830341526,0.33495785434296077,0.317683780744652,0.2980924864706256,0.2785046713958229,0.26167044803078454,0.24446928510676225,0.22576041647595224,0.21039536444039497,0.19494109824490524,0.17888864181736142,0.16409693253232582,0.14935480806263957,0.13644390450752464,0.12738291245320177,0.12367963120713654,0.1174412567671349,0.11210439093512248,0.10273038193806983,0.09082832117950901,0.07768366233730728,0.06306111860527386,0.049653238787668696,0.03495936709529357,0.020303375034062432,0.007245925246715856,0.0,0.004554830327690662,0.017231031654093787,0.03425013192361892,0.04966155066879441,0.06667963996605852,0.08320051132066653,0.09997407219772336,0.11717042714493642,0.13470743498527316,0.15120490635713646,0.16934296575965446,0.18525179888110843,0.20450871773228063,0.22009942894254986,0.2387106408243027,0.25605019620951674,0.27252305660209997,0.28811334297832636,0.3053995798240864,0.3208997952495559,0.33602018531547695,0.34732095922884365,0.34056728174120077,0.3275238757172665,0.31483380982167397,0.3031808259981751,0.2941786321475458,0.2893150364161735,0.2870311860892336,0.28216622685330495,0.27404649195566777,0.26712539628936116,0.2596373228684635,0.2513598499847811,0.24888210334146,0.252395214065399,0.2596732981456725,0.26649564407381565,0.27459978373104243,0.2857436981460868,0.29134604027225774,0.28851950480575717,0.2866947342294529,0.28317562672432983,0.2832196681084649,0.2866748311009928,0.2824690126332642,0.2753204401864794,0.27328848066839917,0.28267957151482614,0.2990936355878906,0.31322388113821775,PM
0.12817947379527572,0.1252051394810605,0.11354765010782719,0.10174184663907138,0.09592968798966339,0.11531395374743791,0.13184312791038866,0.1505969929361215,0.16655644089185673,0.1821662444411496,0.1912070701875903,0.19470860556704173,0.19435570405162572,0.2036716115679924,0.2096703296028155,0.19968932893731273,0.17801370570648167,0.14951532307726723,0.12259060458640336,0.09034746757270229,0.0654028481478468,0.04355696047032831,0.03966149674802821,0.050074192666523576,0.06897048318843768,0.07982926024123405,0.0948585537116724,0.10726598097847706,0.13178327099679454,0.1579691536822856,0.19078019707757665,0.2258165447258269,0.26693640142404207,0.29688583189099726,0.3385752987236341,0.38580969051260205,0.4265347379127207,0.47224527845772246,0.5199521040801605,0.5623408098902765,0.6060440433602479,0.6538121173551505,0.6984032471432144,0.7399957737952005,0.7875947244106769,0.8354070681222765,0.8804768822882625,0.9216815084476668,0.96862392752904,0.9999999999999998,0.9843803345836697,0.9441720478575661,0.8967868762235807,0.854995387542494,0.8106468721246383,0.7629782263384988,0.7208038070467555,0.6768678191029649,0.6300139393517983,0.5896659258574399,0.5431413301502239,0.4970461933754382,0.4565463178638838,0.4093735895671933,0.3621587810678437,0.3216603867426635,0.2756140124302153,0.23023531102257588,0.1933910341571894,0.17876591258191854,0.16768236120986502,0.15595529926709317,0.14661640580547775,0.15123028479444356,0.16130162484682886,0.1673168062338084,0.16447472426599252,0.1597815389331425,0.14719866147109517,0.15569889677772397,0.1544793274120302,0.16345037775375348,0.16452346805453444,0.14816120375428454,0.133282101600813,0.10791138594833605,0.08229202367166488,0.0573188701367664,0.0334217955562901,0.017611554146303554,0.0185893396387804,0.035815635406813984,0.05441390190786888,0.07080965977253495,0.08476527701063641,0.09939932389251149,0.12004920141284714,0.14636836063252656,0.18408692607941401,0.22404120743266676,0.26494745799527264,0.30939811046049837,0.3530258884424162,0.3954778234523504,0.44318599306676076,0.49063865895992853,0.5315245434233085,0.5769593004641977,0.6247734442047179,0.6708703136038101,0.7113555166280408,0.7585398410593662,0.8048730831611983,0.8452830957700186,0.8922461336421812,0.9309465383294546,0.9225305000149546,0.8846690555294379,0.8376083834527883,0.7941747930553629,0.7515293369932976,0.7042391255904306,0.6635648852266056,0.6178716791620176,0.5737916194181085,0.5317472833590873,0.4840858892372606,0.4380943141137341,0.3975330280871159,0.35031886391851796,0.3040414887319909,0.2636493553459236,0.21792282006224206,0.18202716922461737,0.1646830278102156,0.15268215092870285,0.13918981287430698,0.13643744653774537,0.1334487497385115,0.1340383686326274,0.1476362093525645,0.1517372902749925,0.1518055398985123,0.15587608139418418,0.161348755539523,0.16125929948354556,0.15198253320531974,0.1328132567596758,0.10813631454966766,0.08170737584798027,0.05499162935632995,0.02505121898548124,0.0032114750005904913,0.0,0.015578963709448335,0.0337192972967304,0.048655246808671615,0.06259081967314462,0.07689921062375826,0.10037684577156814,0.12453396293590413,0.15249218316354907,0.186423989699962,0.22625702812999404,0.2686000301251117,0.3117415629404223,0.35887403483192637,0.3994206993073386,0.4454373668039484,0.4932148075343834,0.5369911629460786,0.5793221295660314,0.6270174915434874,0.6728305261909819,0.7134341387384813,0.7607884976026453,0.8086133289958599,0.856438339862631,0.904027505678412,0.9429846840745768,0.9488297023259957,0.9172308156600677,0.8740866209238065,0.8265729996389555,0.7850927079777452,0.740365327520683,0.6938827933888769,0.6536168655628123,0.606756815157558,0.5647465763519299,0.5206419303312899,0.47287788484133175,0.4286747366734065,0.3867349414316821,0.33908733901539834,0.29301044982339075,0.2525172860351088,0.20839402367844584,0.17684975460722074,0.1698297992643285,0.1609935769591062,0.15017249025754853,0.1475851265625414,0.16241017681758985,0.17053933926121534,0.17124445262079657,0.1757785893242796,0.17550128379427332,0.1717834230868278,0.17946317161967595,0.19187729356505168,0.18667712490274035,0.16633969544957483,0.13951827584983012,0.11282067530870599,0.08735261897594415,0.05747881625116236,0.027694684212658638,0.007753259996324813,0.009137843886936281,0.022998919685538466,0.038817696904379195,0.04909704720503938,0.06037780446261998,0.06993781901791785,0.08324815068785041,0.0863950765579653,0.10984151739667336,0.135890460303973,0.17070291607584465,0.2089288517768888,0.24743911468495727,0.2921132210052495,0.33362980693553124,0.3782862230869146,0.42608772552052465,0.4726748131827556,0.5130043588557835,0.5598556574473581,0.607678916359635,0.6545817378184633,0.6948110296042771,0.7414463289473392,0.7885098233430845,0.8288605590323417,0.8752134643282588,0.9230332477554268,0.9691521775190142,0.9919687511457187,0.9694139833081661,0.9235940468200601,0.882126228365834,0.8373839350900043,0.7895775755133474,0.7450138935432473,PM
0.7128671726697315,0.7184033566654973,0.7268859965159242,0.7341114056775275,0.7467869712889965,0.750641159376503,0.7441823413430153,0.7434844292097413,0.7506343589413276,0.7550443298063252,0.7641373477374287,0.7630313968470772,0.7549634175150897,0.7411935593453531,0.7449813358701178,0.7611287336627748,0.771290837592836,0.7637492002314119,0.7629006099443159,0.7701968472475793,0.7594389276736626,0.7368460218906501,0.707144931584111,0.6694744902042666,0.6369126294642815,0.6010540372387256,0.5664013034568602,0.5326991624365014,0.49316958955246193,0.4541437460593911,0.4231051072707426,0.38529081128503173,0.34569278308224494,0.3060913389734159,0.26662047364781505,0.23370906821026272,0.19818942287877706,0.15861453250319912,0.11901308839437008,0.07941164428554104,0.04027040925455916,0.01326838881327519,0.012272646502690554,0.04393300012309065,0.07972988248667767,0.11235276664875915,0.1517999982896665,0.19140144239849577,0.2310028865073248,0.27060433061615363,0.3102057747249827,0.3498072188338117,0.38940866294264054,0.42901010705146936,0.4686115511602982,0.5082129952691272,0.5478144393779563,0.5874158834867853,0.6270173275956141,0.6666187717044432,0.7062138009970012,0.7430867892362296,0.7747486838376305,0.8140955781746602,0.8536970222834892,0.893298466392318,0.9328996942431393,0.9718975035919406,0.9999999999999998,0.989136352896532,0.951201802648683,0.9204217107609947,0.8846322001279447,0.8643969552159827,0.8357587084361386,0.8053504585779696,0.7763461925181001,0.7528825187405959,0.7338967289033858,0.7186157086081202,0.7059348066912328,0.696854594401827,0.6960100308619555,0.6882425826490894,0.6750342861528686,0.6669705815338678,0.6601902620111166,0.6526714236882483,0.6524130755702626,0.6540359398303182,0.6695282891472463,0.6893118797449267,0.7091132656313621,0.7297952149724378,0.7570317178649741,0.7697852399529248,0.7590576548156087,0.7394952855439139,0.7245010027582288,0.7115930876980645,0.7136547715948447,0.7179552968242637,0.7148478259781175,0.7021957587396048,0.690011194796817,0.6943798516788602,0.688478002353297,0.6786667889908575,0.6743605037162774,0.6796089820013187,0.685158025660175,0.6884485932698057,0.700859354114943,0.7069821026353453,0.7070559605753093,0.7070559605753093,0.7070559605753093,0.7070560837602506,0.7074961889074245,0.7158035795220694,0.7179779538845705,0.7152092419298652,0.7073872927480906,0.7070564743101624,0.7083593641003525,0.7131794336323225,0.7144218692438575,0.7179691829516697,0.7166046432333013,0.7078838858974457,0.7098535551596288,0.7177234738879044,0.7130614115357248,0.7152741412328796,0.7177780836638263,0.709569395758954,0.6978172270137963,0.6999642825362289,0.7153005944625037,0.7328337838537862,0.7315172023459264,0.7218760430983289,0.7220891283121682,0.7318441053719424,0.7343199132862541,0.7040004540776856,0.6723271672257396,0.6363012137968664,0.6041418218704337,0.5652067402863656,0.53387858995983,0.49650770160897273,0.4569152721995964,0.4199820059339805,0.3882869356039469,0.3490357429682902,0.3094343180215633,0.26983287391273447,0.23023142980390543,0.1906299856950764,0.15102854158624734,0.11142709747741852,0.07182565336858948,0.03244399558973354,0.0038570664783608155,0.0,0.029724017194799668,0.06921276195683834,0.10418401874404015,0.1376184507956697,0.17712949338524941,0.21673093749407712,0.25633238160290617,0.2959338257117352,0.3355348947908545,0.37408090165933916,0.40487154319423824,0.4434112344194421,0.48301207629078124,0.5226135203996101,0.5622149645084391,0.6018164086172682,0.6414178527260972,0.681019296834926,0.7205214049365112,0.753656899688075,0.7889149630459467,0.828496103305143,0.868097547413972,0.9076972201804325,0.9456781388356088,0.9594764968248508,0.9274916323940197,0.8904413911950237,0.8589351630251081,0.8257719977488331,0.793166766847383,0.7622690811082873,0.7380330815473155,0.7271592100214628,0.7119545733031682,0.7070902026696033,0.705368226083386,0.6984262113441329,0.7062671565534042,0.699889162903758,0.6891720423223735,0.6953601610614562,0.6961269933476535,0.696463057398615,0.7044907895281616,0.7147277248063431,0.7301211267893697,0.7498080051579061,0.7695441848187432,0.7826441680607554,0.7737955423547735,0.7559293717991848,0.7373346774209428,0.7290526913020257,0.7289139005055072,0.7289091431319623,0.7261898934247208,0.718325731944436,0.7179576237472223,0.7127672113036465,0.7072968212257609,0.7142153569910683,0.7182440208019096,0.7259511318017828,0.7356558205398847,0.7398274099522986,0.7416178014836152,0.7501858833411097,0.7507718404357049,0.7507718404357049,0.7507718404357049,0.7507718404357049,0.7507705155132269,0.7489296417887488,0.7421420912045287,0.7501757212207347,0.7507718404357049,0.7507718404357049,0.7507718404357049,0.7507718404357049,0.7506021447340347,0.7416353204238197,0.7313045742756945,0.7458170238008577,0.7583994757426764,0.7528710814431838,0.7434049934929217,0.7476166964709696,0.7507619009034643,PM
0.25906931034229874,0.2649336251869998,0.24287258087054586,0.2092329860506017,0.1729225893797206,0.13957251117429936,0.11020770949048386,0.08705418162027723,0.07080401157873695,0.08146610745888716,0.09373128482254178,0.11968537853163119,0.14919194917202017,0.18916000784401055,0.2335053159848155,0.28047518051324505,0.33113706256548925,0.37978428889947224,0.434763008859965,0.48250604453323076,0.5345739315793185,0.5847115198587001,0.634233816777281,0.6847805454284006,0.7338305514083747,0.7844196262948442,0.8153080275048175,0.7935678843864631,0.7452371926995651,0.6903376736876501,0.6427474023334736,0.5903718128053042,0.5349345820371165,0.47954882497537143,0.42918305127495104,0.3798313084415952,0.324481959164151,0.26903176502168646,0.21369950908524804,0.16426035508681447,0.11397198010599552,0.06348011609406412,0.0715388584248744,0.11464553452775017,0.14760196591258667,0.15672841575482654,0.16539175558722152,0.16688164396996497,0.1786911194282148,0.19559059452407102,0.19650297559145513,0.18280106931681295,0.19205316152980467,0.20920835236645807,0.22129932367635563,0.22932747032909595,0.2442499165104255,0.2621191898774542,0.29591332491608724,0.33282564036584583,0.36632562085646514,0.37977935053428924,0.36352073473724156,0.3319455191645302,0.29351481755328024,0.2518508816447653,0.2062215553765827,0.16546654466810873,0.12644682701362098,0.11532962134298796,0.13721293223469577,0.1524954698892973,0.1681185982457838,0.18483458010961962,0.214463452813896,0.25452655740583685,0.2966018241608388,0.34761351721707756,0.4030289555633124,0.45815622491208163,0.505782708993622,0.5580456973060244,0.6117614735452426,0.6585309251986016,0.712986639387208,0.763754920442334,0.8127307645897734,0.8680128619400098,0.9195085542028152,0.966874625493833,1.0,0.9817693286396234,0.9339898207890447,0.8857707993259325,0.8305651114820529,0.7751274827788057,0.722594615684458,0.6751749215992255,0.6201124100820428,0.5646622944666233,0.5092121557886498,0.45409376726268125,0.4062133149237992,0.3541935912002092,0.29875947745119347,0.24330928330873003,0.18787081690018903,0.13977959716872257,0.1549982593759447,0.19792946124552935,0.22169013721550845,0.22994775795552802,0.23421892829398505,0.2343670884721385,0.2405692057790727,0.24287084468507203,0.23475653964216225,0.23765672170525587,0.24272098693739141,0.22190663678305933,0.1888938503561759,0.18212589778289368,0.18872944462170116,0.19382449878061503,0.21560263006056868,0.24163671159894862,0.26875966430944853,0.27671404903127894,0.2528238990249849,0.2191297001342336,0.1813570310159205,0.1391071657146281,0.09757331552778514,0.06758402270625319,0.06187812735863907,0.07692330587995988,0.09375026225102578,0.10112057558908139,0.11919669127827848,0.15096209887181455,0.19192874178391173,0.24233801104007613,0.29771944846945275,0.3496946889674706,0.39761141392944044,0.4525373705859832,0.5011035801441177,0.5522879093290394,0.6033858889703501,0.6520080183059931,0.706410083460669,0.7531085773234918,0.8049953028441776,0.8395756385185034,0.824349533435329,0.7787897632170186,0.7289329340138098,0.6735602614232068,0.6186309393891762,0.5715484847582344,0.5185501300720508,0.46310744452031116,0.40766197655740966,0.3541894724739656,0.30827003106314055,0.26877739470622886,0.2198590825448996,0.16445074075620347,0.1091452353824176,0.06017925591954354,0.016011580295596906,0.034055879222025354,0.08319884056625204,0.11603265819472641,0.13211594109378266,0.14725896373095937,0.1506879152008147,0.15878692223843172,0.1744999985589164,0.18672634905836838,0.18072458163735527,0.1669712283114151,0.16931837058415766,0.18814932045125743,0.20190776812770328,0.21312377912135427,0.23269918267980017,0.2629803478534882,0.29403001425206865,0.31127350723971814,0.30494932030621746,0.2690075299899439,0.23220654635929705,0.19531569131628945,0.16263944104644734,0.13696111044458226,0.1387973069172126,0.11952636395078864,0.10510345246479003,0.11431957811232896,0.13366787891837895,0.16909823887561704,0.21032322840586226,0.25835750970336147,0.3077831206447177,0.354536068283835,0.40740861528323213,0.4544310049613651,0.5075754118683284,0.5585627521696304,0.6072953221881181,0.6586120910101463,0.7059888171160118,0.7397603209500137,0.7262850939600045,0.6801081203503281,0.6248742629054305,0.5694240687629675,0.5139738746205018,0.4585238185651406,0.40357591864252784,0.3564148733282275,0.3035128989641196,0.2480710576050711,0.19262090901591877,0.1374652627383126,0.08942762903271673,0.03770710678473299,0.0,0.03411608183385417,0.08025011052057263,0.11495778164001202,0.12239403222318956,0.13262926907158223,0.14241839975539827,0.14806228843792768,0.15459859748736116,0.14647296717356495,0.12405319902098366,0.1326794428727518,0.15266331893368967,0.1684467629699773,0.1803281311273901,0.19680642352055577,0.21336700899684513,0.23647059567572137,0.2660015239833451,0.28701514905465886,0.27660117228475234,0.24864721394876188,0.21372782181248162,0.17684350080189137,0.143583407382311,0.11814272083610411,0.1265891118219724,PM
0.20938113768115518,0.20349673793537515,0.19389688361485802,0.18586637427058084,0.17850323652197653,0.16648164482401762,0.16528539612372617,0.16450166382604148,0.17115626250536753,0.17657801656718908,0.18606353919324747,0.19611481443854384,0.19591410190695613,0.19456528752834967,0.19981497817102434,0.20037758292261243,0.19607512512338943,0.18760988308307613,0.17610904283813,0.15065525859863937,0.13523098255486699,0.1454575975683121,0.17341909545474898,0.19940479187875737,0.22983383891543596,0.26108350300184413,0.2923337734001705,0.3235840437984976,0.35483431419682443,0.38608458459515127,0.4173348549934779,0.4485753642871393,0.4778617029325387,0.5042594373020766,0.5274189430570484,0.5534401931596418,0.5846281452999897,0.6158772897547522,0.6463160030996442,0.6723005252613647,0.7028935581832034,0.7341433865971407,0.7653936569954676,0.7966438721457458,0.8276552457293673,0.8540960195645628,0.8836634858377057,0.9149088982926186,0.9461591686909456,0.9773717913863353,1.0,0.9802856002462192,0.9491588030913316,0.9212451649433482,0.8933038074500133,0.8621030736719462,0.8308528032736193,0.7996046129532124,0.7694875826516168,0.7465466987356233,0.7252989568471688,0.6948092246168363,0.6635595129671072,0.632310445426018,0.6020619331131951,0.5760023326419399,0.545294362866279,0.5140442716699563,0.48286055829456087,0.4552479001874197,0.4269921935510854,0.3958366148598409,0.36811498122067055,0.3399928274987687,0.31131473217610517,0.28414426947512683,0.2546693635964481,0.22828304203162997,0.20069576689579294,0.17696896407307072,0.15243642355052467,0.13355613154660673,0.1168171773941481,0.09812286191825004,0.08027150243813408,0.06853388246551662,0.053524365709209154,0.04305652367744173,0.03965413162542708,0.048998099024293085,0.06925077009991587,0.0898419893722896,0.11205429902826403,0.13292431172168473,0.15159203442887925,0.16028140162931925,0.171738963380889,0.19108951145858133,0.20685092622384027,0.21907544513524146,0.2263074329546182,0.21818792210513416,0.20397807805396817,0.19586762196935203,0.19845531660179994,0.2121086704031836,0.2162966332844971,0.21984137240172497,0.20883189246593847,0.19442916390456455,0.18901582964989605,0.19496530586530114,0.20411035573223657,0.2155709817729281,0.2158534473107443,0.2110924170970061,0.20711884940950154,0.20067262801371233,0.19432880878178715,0.20213052447565327,0.2120619142241249,0.21111250446541407,0.2024441963532595,0.20270736609119266,0.2119045054188744,0.22391170549436934,0.21829859895456116,0.2066333487524592,0.19640609585713964,0.19692460680236978,0.1970521767125346,0.20539055268322048,0.20717800045646784,0.20488474265653567,0.1963416246586689,0.19822955838732792,0.2006495529977559,0.20526353730175173,0.20461131337167737,0.1964560484968867,0.19949426301612871,0.2004575127563275,0.20045465134600615,0.1989325134432125,0.19025060625339285,0.1782007756691255,0.15687703424404087,0.14864869886741316,0.1652594068545199,0.1945552524151022,0.21596646420396648,0.24453111304962327,0.27577068885077516,0.3064841267815446,0.3325467475010091,0.36278683194420935,0.39403583682667853,0.42528610722500515,0.4565362302952023,0.4873262223975008,0.5134311265918818,0.5435532208603691,0.5748013485221566,0.6060516189204834,0.6372919412593165,0.6665579469591876,0.6932362679259938,0.7243165898193071,0.7555668602176338,0.7868171306159606,0.8180594159804888,0.8475394382150188,0.8740561137431637,0.9050708674387455,0.9316198246696688,0.9210774186927031,0.8934086333796409,0.862208738153428,0.8309584677551014,0.7997083701840031,0.7688943713936631,0.7427958663598797,0.7126916225304649,0.68144322645795,0.6501929560596234,0.6189508485849664,0.5897309815032397,0.5629933507158735,0.5319279837441822,0.5006777147624719,0.4696633700169275,0.4431813327970675,0.41365909641996357,0.38383261064333984,0.35757004306868523,0.32746155657687126,0.30146958114283184,0.2712756506597116,0.24510461966218977,0.21634327444189783,0.19056534245508883,0.1654583411757964,0.14360353504151613,0.12611351730578946,0.10623557841166564,0.08877027502759627,0.07123133537502957,0.052381750613271216,0.032468438003178,0.01625800922818288,0.005350480519953904,0.0,0.010758241496623855,0.03132040959434457,0.051421074174039294,0.0725103315484501,0.0956392232452925,0.11907785656494874,0.14252851034985747,0.16594954362262548,0.1874555766784325,0.19982309649311292,0.1972403688962734,0.19848232815967748,0.19544766582941953,0.19008538455811141,0.20040322770813357,0.21149076458192706,0.2167390977279624,0.20740227378595444,0.200785703824639,0.19963685769655126,0.1947055830622515,0.20155329662673038,0.2041442766953736,0.2005981513087005,0.20441214812615427,0.21230416434755073,0.21262298177445405,0.20173370230137633,0.20371799621556685,0.20776862053546075,0.20997244454719066,0.20446672576935132,0.19467445764816427,0.18795816591540193,0.19285234091847947,0.19891328631370953,0.20146285406887854,0.20419873145275846,0.1940288896942688,0.1856909300895988,0.18055778841986814,0.183082371409667,0.19376011711131103,PM
0.7250306970600047,0.7181761770845922,0.7119841336163162,0.7110242711477164,0.701105760879003,0.6878797695455767,0.6845582413585887,0.6837251671529188,0.6952151860933375,0.6979762347272307,0.6890304792228117,0.7017345598610565,0.7136853463092818,0.7196719719682365,0.7197688966186786,0.7127874809312098,0.6843028522372001,0.6485207997853171,0.6076532790908189,0.5652273705198274,0.522797596002301,0.48112987662543527,0.44518565048484326,0.4038403447657173,0.3614115624483396,0.3189812627086779,0.27655096296901616,0.23412066322935432,0.19175325287280343,0.15337657085305612,0.11509340599517359,0.07273567526772684,0.03117889281007391,0.0065954991169130395,0.023464553764787843,0.06475950553226573,0.10694351284428927,0.14383173117811165,0.18372850777778627,0.22614455141388623,0.26857485115354773,0.31100515089320957,0.35342698678542506,0.39374899833250765,0.4302588828650271,0.47239065922503576,0.5148209589646977,0.5572512587043594,0.5996815584440209,0.6421063852097124,0.6828290529166348,0.7191126225695734,0.7610672305287065,0.803497366515509,0.8459276662551707,0.8883579659948326,0.9307879623583621,0.9726088571909426,1.0,0.9767061472533229,0.9345171972839772,0.8933796626720918,0.8579265092601713,0.825264739474977,0.7957810923823654,0.7751540809302462,0.7661420645472241,0.7567976273834345,0.7613436758001806,0.7616070054591626,0.7623209589248674,0.7723587116671236,0.7917944440565485,0.814180106351714,0.8385356213226736,0.861173645100872,0.8557618512367935,0.829383818274521,0.8008848674127893,0.7804218670666916,0.7639388711970434,0.7616135580590637,0.7618974858202139,0.7679156925660298,0.7769351505531927,0.7887964761725947,0.7934160794759484,0.7906090654201028,0.7839271811396886,0.7736639697100656,0.7695989853743748,0.7635299517509961,0.7616026234775419,0.7590720269192077,0.7442714184868959,0.7398026450426771,0.7420434530591185,0.7325287860976277,0.7330044758975236,0.74924942381704,0.7532483585124836,0.7532632901278464,0.7506129116470892,0.7271872858691641,0.6922092809410578,0.6506100893957782,0.6081806939850936,0.5657503942454325,0.5233237574278446,0.4824867843183389,0.4463133746503991,0.40436474005226275,0.36193458617394425,0.3195042864342822,0.277073986694621,0.23464368695495896,0.1922133872152968,0.14978308747563585,0.10735278773597379,0.0649418725201627,0.02653243886810741,0.017295199702504926,0.04713109046473152,0.08918350858040591,0.12762873662276608,0.16583856476381997,0.2081982998290829,0.25062859956874495,0.2930588993084061,0.3354891990480682,0.37791949878773023,0.42020829653756997,0.4575885379390734,0.4968969502836773,0.5393050071195564,0.5817353068592175,0.6241656065988794,0.6665958441731044,0.7087197765324325,0.7453974123975624,0.7855616680632562,0.8279814146703677,0.870411714410029,0.9128418682883472,0.9547875501604626,0.9874879695079117,0.978280009500144,0.9432259780466141,0.9039389157388849,0.8678263776504749,0.8321499096794909,0.7983648747165188,0.7754422663377492,0.76338361347262,0.7544590983113484,0.75317418803334,0.7484439059724988,0.7449891207536488,0.7483064680655163,0.7661500859896544,0.7873498287814684,0.809013177435852,0.8224190437333121,0.8022432870737914,0.7768089154692019,0.751644267171298,0.7340304460951972,0.7248172155181494,0.7276055548132345,0.7289135426267028,0.7368428101392186,0.7488925081207938,0.758605717873909,0.7687796388846986,0.7696934806397924,0.7640587989116607,0.7608655150108066,0.754369900380774,0.752924260949573,0.7481083535480009,0.7470707836630175,0.7348561859518155,0.733531729812003,0.7412184809088731,0.7372465585907622,0.7461777816963246,0.7565488649992662,0.7614737628622779,0.758536475483073,0.7520507774980634,0.7297792074898799,0.6939383281357181,0.6518857655009553,0.6094555643162551,0.5670252645765932,0.5248199071777255,0.4878908230481833,0.44805391372535897,0.4056397562447669,0.36320945650510583,0.3207791567654438,0.27834896498137174,0.23635007220752424,0.20001207846692848,0.15938744365018065,0.11696334869395553,0.07453304895429447,0.0321974652420296,0.0,0.013602969070974136,0.05323083078898938,0.08274688069479907,0.11604538433470901,0.15691278164010858,0.19933958547665664,0.24176988521631804,0.284200184955981,0.32663048469564215,0.36905333875755264,0.409511743890963,0.44594202195410926,0.48801600637029496,0.5304462927671303,0.5728765925067916,0.6153068922464544,0.6576549034274353,0.6958049449552104,0.7343186855181718,0.7766924005782798,0.8191227003179409,0.8615530000576037,0.9039817823749807,0.9452498636252489,0.968809780800411,0.9450371073728321,0.9079838807491238,0.8699416714832495,0.8351392198974992,0.8025305901950803,0.7766276052708128,0.7685977686452188,0.7622071619818451,0.7615861413871163,0.7585908826968828,0.7539283533659686,0.7630074026903413,0.7797556822748302,0.7992292959317433,0.8203200224517013,0.8312617089926904,0.8097916576316155,0.7851800787061021,0.7655623209925786,0.750997507582948,0.7451063975703194,PM
0.05900532319425278,0.0731995928797129,0.09756971717510476,0.10121242057373758,0.08298127145342193,0.062164891745000395,0.059093047037076185,0.07074911653294491,0.06552962719760957,0.06109685254607067,0.07791639073760304,0.1017898281054267,0.1275453858657022,0.15565038148214383,0.1765655830097077,0.2031153673149021,0.2254766658210522,0.247939259099356,0.2671159063037173,0.2787032597785203,0.28466715593555547,0.27702258122557544,0.26415792078959177,0.25151732209305055,0.24494042916656455,0.2544996657343158,0.249261688963904,0.2316774351586558,0.2197938516142811,0.22686285643522208,0.23729702207949133,0.23839176046751598,0.2461152184026939,0.2580030398395957,0.2779115524999952,0.3117719678087284,0.3364749613608121,0.3666238080097227,0.4008599327825918,0.43330207896495854,0.46962829422788277,0.5061058197042626,0.5425833582846001,0.5789608016727484,0.611798890642331,0.6457146457638584,0.6821615190502591,0.7186390680402831,0.7551166170303071,0.7915886013385708,0.8266725692691009,0.8585625198042021,0.8946949334314395,0.9311723163763036,0.9676414866910018,0.9999999999999999,0.9920035072784384,0.9638117439926871,0.9357021818312524,0.899710806840042,0.8636319837463254,0.8318529084386291,0.7966057814482269,0.760132629110367,0.7238278708851543,0.691484547602894,0.6570162443165407,0.6205544400548549,0.5840972209680534,0.549924175907568,0.5173144263070745,0.4809783469146237,0.44542961916055124,0.41377487091855725,0.3778749097136239,0.3414073934770353,0.306620581483683,0.27468422000261017,0.24286275343045183,0.21657536544954714,0.19482172073900272,0.18011829679394298,0.16795609857865412,0.15221162317486647,0.14372628494455242,0.13383060315175177,0.11780394615705814,0.1045934770114203,0.11226276961309434,0.13266448832918454,0.1617298372979331,0.18914617874632078,0.21516669000737731,0.23876326779493373,0.25445511841250645,0.2635011810729694,0.26065867917883623,0.25477245878774035,0.24019101245370378,0.22619550038375758,0.21088685015050534,0.1970639007174747,0.1956694252689427,0.19012717386698863,0.17728081760705527,0.17339129905831652,0.17503743980078434,0.16778555173643883,0.16614874412658964,0.1615287675203244,0.1780568874853694,0.20825721151026755,0.2352268066092461,0.26475485588586867,0.3005168790282927,0.33430818853923927,0.36726523832297386,0.40365083867441987,0.44012838766444384,0.47659889202188077,0.5114827592186054,0.5435155957978478,0.5797066384432722,0.616184087010441,0.6526616360004648,0.6891391849904885,0.7256043793016037,0.7602361535165815,0.7924514445829586,0.8287173951103067,0.8650969629712014,0.8892947100035612,0.8646993096361509,0.8322142232134276,0.7980044320932705,0.7615479996170714,0.7252113604443778,0.692678758223933,0.6584271489592449,0.6219698384840117,0.585495927430311,0.5502877571059944,0.5184594383026074,0.4823914153603296,0.4459293210295002,0.4115943082044745,0.37912553362471824,0.34301975353839265,0.31078662200503937,0.2762218279129637,0.24269358710363143,0.2126119237580545,0.18508772763601922,0.1518631236673833,0.12621666265896803,0.10422961144969523,0.08754571430904479,0.0726343690355915,0.060981838392332066,0.04924181294466423,0.037770385319579436,0.018490995789651077,0.0017051390027634783,0.0,0.014161308202764955,0.03783912316625737,0.06719846146746022,0.09499783797942696,0.12083997838199445,0.13576753611591985,0.13669551549434877,0.12916235672698384,0.1264070056737796,0.11408304133128266,0.10014872059050806,0.08864390683646628,0.08653970075980322,0.08444145069200704,0.07251696713274514,0.06238435687210786,0.07169828115371202,0.08280257289302428,0.08696080684485685,0.09330467532258413,0.09562311897433062,0.12049077912742656,0.14856029903326917,0.17237403778792681,0.20745952098380804,0.24393430014219886,0.28041154660145684,0.31644872423912485,0.3482373181743944,0.38351576614578275,0.4199899994881954,0.45646754847821913,0.49294407444323374,0.5287523413924503,0.560383582829454,0.5960472294981695,0.6325232478242157,0.6690007968142396,0.7054783458042632,0.7419493966050824,0.7769068558746365,0.8079857737824933,0.8152318287236587,0.7819548984889534,0.7454934403731984,0.710875140976947,0.6786483212571529,0.6423813150228866,0.6059158075198511,0.5713369530892146,0.539076435539919,0.5028031772589764,0.46632629558479943,0.43043986996061456,0.3987585904685781,0.36322328789855696,0.32687881079060543,0.2942627106888579,0.2601846558234385,0.22716624320261192,0.19359748196286775,0.16106187560363683,0.12790710831962926,0.09782953389006255,0.06955726699188491,0.053114441235067256,0.04479826493884187,0.04582429158209156,0.055176847777671845,0.07172771891474827,0.0884838540256484,0.08952262798704902,0.08515740389423132,0.09843631514073603,0.12237038511204279,0.14938501860415343,0.17860941865232405,0.20419357938141058,0.22070330234958424,0.23102971165835806,0.2444118491006385,0.25120109786428013,0.2567544323491803,0.2500545345505881,0.23412501162679777,0.23079494884003682,0.23892720882935936,0.24408548825913068,0.2327918468011244,0.23070703569418438,0.23335397140051717,PM
0.01749922584191599,0.034570170236829734,0.06480403316599936,0.0829258591308435,0.06980871752615059,0.03892101845682472,0.01760271803404545,0.01432322488619664,0.030968009508729466,0.06069484390224056,0.08362298376405763,0.09408530593211961,0.09690707956531219,0.06739113006791286,0.037041591812369656,0.035671800541692944,0.024123644468279082,0.014998162285845718,0.03227589761722238,0.05959600145144495,0.08861838408263156,0.11733787308065136,0.14118225972484932,0.17348411320125945,0.20206455012521696,0.21068717204792087,0.2014030473701658,0.18692868732792145,0.17922699181405832,0.18172556576210952,0.17332433180951878,0.17277560388487467,0.17036569796311962,0.1708833018041107,0.17394514840452002,0.17564933008690975,0.16329309901907463,0.16433579629328254,0.1781955266600519,0.1782590884441846,0.16825159737911433,0.1626096567119193,0.14595524990366893,0.10781420335959524,0.07006856213408397,0.05223661859590978,0.0831319519589393,0.12101975546253385,0.16407759148838874,0.20785548995183412,0.2510589534530192,0.28915842117491275,0.3316077398609423,0.3753833843000791,0.41916253316203655,0.46286135326481115,0.5027735401336446,0.5429674049574449,0.5866899491674487,0.6304690698201156,0.6740559132157895,0.7130652316381121,0.7542362229049171,0.7979965140348189,0.8417694640401241,0.8838162615398986,0.9067764017199373,0.8802378278518197,0.8437309714036572,0.803785280748885,0.7606446884870433,0.7225673683606146,0.6801071937654146,0.6363350261399223,0.593759408266161,0.5557311911927265,0.5125831009945323,0.46880469516186407,0.42502785670827103,0.3823227012060666,0.34435063038810365,0.3038077024703514,0.26518297531522905,0.22686659808782483,0.18804259635820197,0.15345434148362247,0.12254764655795025,0.10309240591339819,0.09982794559771224,0.08555471898463063,0.07755012132157435,0.07169392169574262,0.07528056711501474,0.08210925235870636,0.10436226092814338,0.1273394316492027,0.15471955590530762,0.1816468892976879,0.20176441306155724,0.19398279135821994,0.1799627306127909,0.1675704851656694,0.15919576942155755,0.15529126982434804,0.14802684773108732,0.14070690123013385,0.1334458252950299,0.12691901445573484,0.13469270790762722,0.1261488132041526,0.10787940158495357,0.10902517762212827,0.12422353084963511,0.12507117206423324,0.12760946671808937,0.11752748474625041,0.10169431429783837,0.06657383774326764,0.02589172732771461,0.0,0.021913448165781446,0.05944732761706417,0.10244165397177785,0.14621792803376654,0.1889123418497507,0.22693571806764057,0.2699690061426816,0.313747342632428,0.3574383661667777,0.3972212652166074,0.43754713676094803,0.4812747586378401,0.525053907499798,0.5688089641619762,0.6099323655693594,0.6489728560788683,0.6924644003188725,0.729510877037763,0.7652057579688751,0.8085967977929209,0.8478672638948361,0.8885397550440681,0.9134634478384802,0.8851496225366,0.8454958011317952,0.8075455324695322,0.7645170958208869,0.7220332366579363,0.6839538652727877,0.6407661598731953,0.5973643451491022,0.5589915488123427,0.5170106721794105,0.47342629804615277,0.434527254380374,0.39325221507510677,0.35072011057639396,0.3126791049250308,0.2695379917697094,0.22822186599876138,0.18962705972974292,0.15134324716611425,0.11462809468262392,0.08595852135850857,0.06760867614633548,0.055917669175292506,0.05714645283984954,0.058270718149424416,0.053532170228073106,0.049583336088379504,0.06250464727161464,0.08463766534769812,0.10890330887468891,0.13487489250384654,0.16412445918067164,0.18903390442976198,0.19967869446562836,0.18715350673060294,0.17940643416665547,0.1655936210186124,0.16497427999565728,0.15708101587771583,0.15827874500405592,0.15543974991283704,0.1615301707910577,0.16384375122730988,0.16986800161067572,0.16167584340606544,0.15716225492149505,0.17299896874160003,0.17814051286234656,0.1791379294490587,0.17276236985631588,0.15866528763978405,0.12161482003103052,0.08577892309485424,0.07568586950286238,0.10763324162199961,0.15113063791997638,0.19490972101053883,0.2386888698724967,0.2824680187344544,0.3262471675964138,0.3700212531381628,0.41234870825724546,0.450485980114143,0.49377497601016507,0.5375537324637831,0.5813289258459653,0.6238038470496221,0.6618745058726654,0.705081675265973,0.7488601393860601,0.7923229264402598,0.83079104458359,0.8726186836962166,0.9163877133365654,0.9601606545789794,1.0000000000000002,0.992954762429411,0.9573245645549766,0.9188380403080427,0.8793965364010947,0.838959258924153,0.7952286956499368,0.7515553858269313,0.7120038675811897,0.6763924632207299,0.6423550437045056,0.5994000651443354,0.5608408957441273,0.519125275798731,0.4769263201792413,0.43869221931313485,0.3959757909783945,0.3579235054291279,0.3170462226381261,0.27891395173427647,0.23999673846922365,0.19975924767444186,0.16538829421983592,0.13961728113219518,0.12456188712007443,0.1193802604781653,0.11484737310233784,0.10993642559101913,0.11107390353779079,0.1239345028225236,0.14392099189498464,0.16911135394463073,0.19336501481437596,0.2161286391157986,0.2222140997733859,0.20891041092703655,0.19295941345778012,PM
0.6790539541138747,0.63391790474506,0.5888740774142649,0.5332699256262106,0.47991045282803935,0.42659696226866206,0.36425408367452006,0.31239532094827815,0.2657972703066078,0.22547488356554002,0.20393078095762496,0.21544526473388403,0.23918059520134216,0.25242899130568697,0.26547832567325713,0.27119484293321516,0.274614236543095,0.2854384730196773,0.286321327879961,0.29512474357665797,0.31494719908580926,0.3462540488847021,0.3829799822013533,0.43024510604173427,0.4838339630071271,0.5489403594302642,0.6040815805476711,0.667305635901636,0.7339239673983058,0.7958218087569957,0.8520223049470887,0.9168961803512432,0.969331009530098,1.0,0.9659268031543182,0.9040264224688821,0.8373964358377197,0.7707478761351907,0.7042900628235271,0.6464840642747038,0.586320822095121,0.5197171389446953,0.4530685717579166,0.3864200045711379,0.3197714373843592,0.25312287019758095,0.18652957636087208,0.1261839603361361,0.06861611041113358,0.01635115616843219,0.05271675703568102,0.11909283515326763,0.18442477802230783,0.23894978913717413,0.303478107676328,0.3700619683526938,0.4298352971585264,0.48065576799599175,0.4865320395164794,0.44791763537798746,0.4072327104358586,0.401707060326995,0.3973365836895191,0.3741678943643034,0.3489990854209517,0.33949478762720053,0.34070992982825743,0.3567918469151765,0.37005300053828627,0.3705817404977627,0.37058181484131314,0.37058181484131314,0.37058181484131314,0.37058181484131314,0.37058181484131314,0.3705806779025669,0.3690674329736132,0.35680090043386015,0.3550189741194072,0.35375867831375896,0.33969730999801273,0.3254712327639182,0.323920762426825,0.33040595230614667,0.3604911031832976,0.4011292437592431,0.445559428407885,0.4951091769852658,0.5410934781118266,0.5854016536536664,0.6352572065617483,0.682881367464363,0.7181587613102054,0.7249001404435429,0.6970274508643453,0.6527039407798001,0.602035160962024,0.5489979619944716,0.49829815128240984,0.4362811077328308,0.37958338263074687,0.32956132045772746,0.2796015258664504,0.23530885506189314,0.19883107927953025,0.19158470100763036,0.21657242918917774,0.2321508717176517,0.24766827701952066,0.2607168834708289,0.261639622299227,0.2639968880265,0.27650920259318523,0.29188666775885075,0.31326924358832375,0.34267783942080765,0.3799546815034809,0.4384107839392577,0.4927289287148251,0.5567994134498817,0.6113633967288856,0.675693741840631,0.7367831020933133,0.7937183338841454,0.8582593466303505,0.9092639921702257,0.9170152364144104,0.8694376135127735,0.8066247821674182,0.7399869914878132,0.6733384243010332,0.6066898571142549,0.5400412899274771,0.4735309690087459,0.4151324762252666,0.35558555786498136,0.2890105602212314,0.22236199303445314,0.155713425847674,0.08907608169474202,0.026581923003933028,0.0,0.052127348722053046,0.11872713306819715,0.18537419855120651,0.250297502986196,0.3046966948093628,0.369758995233322,0.4359310567975401,0.4865589362895961,0.5054172066137137,0.4718583364718296,0.4207237441993854,0.3875644710072166,0.38563190888768695,0.36993321407152324,0.34979123037966975,0.3397030300450141,0.3457165085588132,0.3625401840243416,0.38203788873464095,0.38611452254280865,0.3807851181674504,0.3587704866480421,0.35502410405717244,0.35502940703709207,0.3588295488418862,0.3640389323538069,0.3552026843008025,0.3550182758004441,0.3549622022498178,0.348621575157785,0.33961818755685513,0.3394547367595755,0.3394547367595755,0.3393585205267837,0.3319976888924012,0.33968540899228294,0.3738042940288566,0.41714450726285257,0.4652241766117169,0.5150908444162385,0.5613945227203856,0.6113741687675547,0.6627038230800739,0.6919821934492854,0.707305040734616,0.6805563737614357,0.641067230765505,0.5957730912079207,0.5452866363596458,0.4833302123071208,0.42654712307277265,0.3761448372897811,0.3231968309175022,0.27651265535799663,0.2322712740948356,0.19778176181440932,0.1859855828920467,0.20252318389467083,0.22027062556550137,0.23068573216370236,0.24163928660440614,0.2468382690654254,0.25883323862260754,0.2689250701420822,0.28543839264274196,0.30479447671083726,0.33836482133803125,0.3891165884809755,0.4424325940093814,0.4964700549667076,0.5618984316270605,0.6205406801831619,0.6798230189412204,0.7463808290320699,0.808847422818145,0.8645891769794232,0.9304515269220897,0.980740949316643,0.9733473572903999,0.9129404283539237,0.8585913687802229,0.7938166601394347,0.7271699593365089,0.6605213921497306,0.5938728249629528,0.5272252887462754,0.4619196986311005,0.4075777228415207,0.343115690292668,0.2908737362828111,0.24030780445711342,0.17402342337995824,0.10747202284057833,0.05877127940429938,0.09278036979557935,0.1582774847885955,0.2249218008504612,0.2888311771678369,0.34358925323037415,0.40916157497081374,0.4661283239543388,0.4916837526579054,0.46463254124716835,0.4186167687833655,0.401810964496947,0.3934641257672249,0.37342169270811887,0.33645284226873384,0.3240540303158874,0.3230571256680994,0.3161405767377836,0.3327532583632533,0.3452602200149677,PM
0.1694139386816914,0.15816233870702778,0.15893181387909083,0.16823674174822856,0.16623062272389866,0.15858048970087701,0.15333359220926346,0.1605520110122155,0.17324516658695976,0.1860439101129282,0.18834830800882918,0.1729220703035953,0.15050695651083357,0.12409860639304127,0.09671908526575723,0.06866460220984794,0.044767776628539924,0.026362947807709647,0.03189996734531497,0.04809842685497012,0.05983059119668621,0.06927131371119,0.08609446806310006,0.1056396878291378,0.12846156730874136,0.16006698849704437,0.19399804429532785,0.23002178690307395,0.26500764418538314,0.300899009893442,0.3393681797065419,0.37380664899774396,0.4103326051477062,0.44898941748119714,0.4876635071569212,0.5257571289428208,0.5594717151044045,0.5971159078632976,0.635788365517414,0.6744582726414735,0.7117187311900303,0.7456268143967525,0.7839128496535838,0.822576097729076,0.8594036617042938,0.8936027961643566,0.9320309571847066,0.9691597592630318,0.9999336076157662,1.0,0.9674965930998579,0.9291169858423302,0.8945956973293584,0.8581506373057707,0.819493335118248,0.7808524204232145,0.7449610489740889,0.7099471569039714,0.6713691476649125,0.6329227843101745,0.6021627397811221,0.5741965327699833,0.5363932516485942,0.49771957927373733,0.4591416669737204,0.42417464900128354,0.3882348516728774,0.3496680709664449,0.3143578066918341,0.28017968965433615,0.24647546766358042,0.21220771203486677,0.1829139337446989,0.17701167192632672,0.17331669558579643,0.1683906899110178,0.15648244844398052,0.1541435693107872,0.16134641137042538,0.15687900913567054,0.14893190176377502,0.13951647767670383,0.13848722187604745,0.14821665522816352,0.16230971741789657,0.16741805481449246,0.1554949881838842,0.13215289016958398,0.10782170024825033,0.08201332233317216,0.054726098695090375,0.029933441123985327,0.00781636702892774,0.009038777661115383,0.02497735727298167,0.03785889754729299,0.04875714571992096,0.06175596370757608,0.08032493140065766,0.10850486500150558,0.1355960925305043,0.16649323733139088,0.2049113095395957,0.24073205331055003,0.2758154083921024,0.3143768107419963,0.3505513327524369,0.3853027313031995,0.4238508556111148,0.462525452573593,0.5008928628855899,0.5349495370686254,0.5719830380835548,0.6106497907299316,0.6493245154311459,0.6878275009914933,0.7222659702826949,0.7587919264326576,0.7974479791808483,0.8354875910381588,0.8691907071005306,0.9068981894262299,0.9446081703189556,0.9749794176014038,0.9768999580432468,0.9464724990712398,0.9080835375052921,0.8718461035804873,0.8371460784806867,0.7986089806794158,0.7599342574134683,0.7213671210383555,0.6865136947942706,0.6504548711784791,0.6118100326431991,0.5731590012691473,0.5368638031922169,0.5022160892541364,0.46368581504926343,0.42501108460698267,0.3863363541647017,0.3476620439657131,0.3094907444533638,0.27572739512480016,0.23976394010087942,0.20657983364225718,0.17454936900023876,0.15798680572558788,0.15734340306367123,0.157051364444743,0.1480255900793651,0.13972896857475747,0.15014719163409007,0.15648046681438943,0.15136993941834664,0.14362930034964416,0.13371291235668237,0.12205172412207788,0.11926012110152817,0.13319753358664677,0.14827108793951205,0.15623831812914146,0.14858199159204888,0.12555847326649816,0.1027520779916199,0.07649576050735174,0.0508506614587545,0.025381852781574232,0.0,0.0010585009411715474,0.016407658935683078,0.02995083586247116,0.04249715030129997,0.05842466914014821,0.07627688339267846,0.10321752990965949,0.13780878939050034,0.17258217443056656,0.20620672887409086,0.24340622819229407,0.2771133834524816,0.31479023154203867,0.3532734675843957,0.38761128244072995,0.4242526176272089,0.4629123204404185,0.5015869418024314,0.5399691000058339,0.5740587861267822,0.6110449583844041,0.6497112684766359,0.6883848234680153,0.7262354005752655,0.7598983712903936,0.79783672037326,0.8364972257082387,0.8732095990119219,0.9055894169114999,0.9342642779011773,0.9697520203505637,0.9938813485398726,0.9801004733270803,0.9468561979061597,0.9084454211785683,0.8701785946618202,0.8362934516535218,0.7989911541940752,0.7603209975415574,0.7216462670992773,0.6829715366569956,0.6442968062147155,0.6056220757724339,0.566969599158523,0.5306167115633339,0.4960213087869735,0.4574978581784982,0.41882579488236715,0.38124680661203325,0.34752075035123664,0.30945386564386534,0.27425627586552437,0.239389205504685,0.20614865785064407,0.17765927306046037,0.17053458978329228,0.1676214159348116,0.16687327160802934,0.16029892468072748,0.14876155081326792,0.1533414354492738,0.16277961246129602,0.16317396385829952,0.15685697637023288,0.14809149433740576,0.14009234724368402,0.13369304947796123,0.1394744251050436,0.151930662227728,0.16616153269699485,0.17887023669583468,0.17358963017165718,0.15635801132184002,0.13294449353852344,0.1088301123387031,0.08759307356166512,0.06169956331391979,0.0367163612942768,0.02455855318799882,0.01699377124265522,0.03603686100606884,0.06285655056760775,0.07847941799926816,0.09152385900109972,0.07224005034316461,0.047468471203266915,PM
0.4715591764867487,0.43450894855064026,0.39473837840987624,0.35502795768808937,0.3142936130736488,0.27482784971301977,0.2310676717821344,0.19113723469913924,0.15449693039779133,0.1195805853590558,0.0872093340839789,0.05732185363861508,0.036872159471524446,0.027464818317988526,0.03877371156561793,0.04765116310703188,0.06931439771965942,0.10020236873373889,0.13679488923048078,0.17697503211788168,0.2186195891468271,0.262682098774944,0.3051300225562278,0.34924203202977233,0.3951667147101591,0.4365115151402047,0.4824566336669255,0.5292448957712529,0.5729696331384214,0.6158083358601701,0.6625289993993954,0.7092636858113722,0.7522171810329535,0.795822886661466,0.8426031699846909,0.8894280975521222,0.9343287149513492,0.9665174839952583,0.9597291943955911,0.9213206227113265,0.8754115032369792,0.833607258257084,0.7886635984536104,0.7418402620017465,0.6950069041486177,0.648935206176889,0.6075786255231278,0.5617637548984208,0.5149314234142005,0.46809675541194984,0.4212724936553979,0.37632724624469305,0.3345362805186384,0.2880240913331876,0.24263897954693336,0.2206933058389452,0.2119170368926121,0.18964547752355732,0.1860208772246067,0.20114525071494105,0.2194728640398479,0.2304771319437483,0.2309720053760812,0.23541978615663772,0.24139677337911636,0.2496273002751329,0.262553068247824,0.27358255412898036,0.2950214882976846,0.32298332894347903,0.3546158212343661,0.3875647930948084,0.42178242467470384,0.45592998272048535,0.4901136247773935,0.5168746714424842,0.5155570029365627,0.484925216083098,0.44770902049836836,0.41012342659482004,0.37120985747997925,0.33308217682965735,0.3027710927264263,0.26502641102354596,0.22394454694340993,0.18415406535167012,0.14950236269827377,0.11675323237226853,0.09063049370419829,0.07709543274274677,0.08215805140220755,0.09861869763453002,0.12138914429656855,0.14844307926649536,0.18121430557716744,0.21600962495069964,0.25586348407879467,0.29869558213763947,0.3403821180620682,0.38524298883635966,0.4278169639209316,0.4717901207469474,0.516353457038098,0.5584223044103794,0.6048381875760162,0.6472239754290633,0.6914420809695471,0.7382507436512097,0.7850854116534597,0.8319199690175559,0.8784611154830243,0.9203052870016301,0.9624182224396886,0.9986295815345269,0.9999999999999999,0.96502349331953,0.9188370126194293,0.872084665273425,0.8289817941778147,0.785540218466409,0.738763531987,0.6919288639847493,0.6450952587797684,0.5989713248098717,0.557597800319917,0.5118518557143151,0.4650200253972029,0.41823856312298047,0.37461349066684757,0.33426698534005517,0.32298280201960516,0.33068098934230183,0.3120075623755597,0.29253199512281125,0.297989899773928,0.3157890490349081,0.33231104863075445,0.3294755243573201,0.3278287619926822,0.32602293199927923,0.3267340802909965,0.3324833125587109,0.3340409811684396,0.3383673401017776,0.3550123901873298,0.3800445286872839,0.41184411491596296,0.4438632567762214,0.47619784031091006,0.504000208302887,0.5386583267683075,0.5618906475889195,0.5533981832468647,0.5221207913178233,0.4866459011259149,0.44781241390769877,0.4044888802375709,0.36350109533086583,0.32337639163421483,0.28344465738208,0.24439842389297162,0.2059361553950393,0.1684464864104659,0.1320006299563664,0.09942886719987765,0.06937135870952404,0.043444587406555435,0.035659479381693115,0.04550883413730611,0.06205985127900926,0.08515066823547279,0.11402734229859235,0.14883464218403286,0.1893364616033314,0.2305284482128217,0.27623118766153765,0.32306023785992577,0.3687999164637913,0.41017498130248986,0.4561900079686597,0.49899000936106874,0.5427535902915855,0.5895421047189143,0.6361475837909051,0.6782691389997465,0.7228015301896077,0.7696003366068768,0.814197425893672,0.8557018639423136,0.8964917563970528,0.9302577416665593,0.9244210486721821,0.883828601159728,0.8424776091736969,0.7962804622652263,0.74944662231598,0.7027300054967102,0.6599243238216953,0.6161637241101826,0.5693724517306847,0.5225377837284336,0.4757031157261845,0.42886844772393384,0.38203377972168273,0.33519911171943184,0.2884854601421495,0.24640873531810648,0.22636225606295934,0.22901856027182677,0.20880520039619122,0.18275031182239732,0.17745146047062665,0.19211571860283028,0.21119689087382765,0.222999650355442,0.2259520277524797,0.22399029333055898,0.22392699250136616,0.22837696066473356,0.23438112960072977,0.2446228701133789,0.26268562650760463,0.28721196030539764,0.31600226837253687,0.3497616546673118,0.38764812996262654,0.42503542284385876,0.4569896783683999,0.4778675557375144,0.4660252190980362,0.4333081979322585,0.3925657328766675,0.3497941484632875,0.30960952992516877,0.27051166814381655,0.23565258356262098,0.23274996583300223,0.2331634916133959,0.22327695968426908,0.22132469088202422,0.19573884660653074,0.17118584205642395,0.18866225194275466,0.1804872815066748,0.1470726629670004,0.11904394774099825,0.11800043862297749,0.10150210936064064,0.08804261227768595,0.05681073923402524,0.025002432993478263,0.003192306743641238,0.0,0.011676571227910437,0.029658989109446532,PM
0.0,0.01661060872930009,0.03409292347749493,0.04971055634213761,0.05879529005813544,0.06701879588149517,0.07557749451125084,0.08596862006269035,0.10476601536650643,0.13006739573391135,0.16140025484110843,0.20130059320010774,0.24033768456713123,0.27534296263553215,0.3132163849608558,0.3489365294427673,0.3899081814636385,0.42903333775301844,0.46398594613725774,0.5047999719969676,0.5459601696162004,0.587120404833424,0.6279489140092542,0.662950859779784,0.7020138175396093,0.7431656427875342,0.784325143607369,0.8246440211962045,0.8590791919391791,0.8991653482652269,0.936337922968483,0.9719984678930396,1.0,0.9947155062762043,0.9631683171609136,0.9229901374733687,0.8843879747480701,0.8490363794412299,0.8080917227834177,0.766931430579977,0.7257844765914032,0.687087082994299,0.6518210897763919,0.6108862382148403,0.5697259574086433,0.5285656355723702,0.4874053137360965,0.4462449918998237,0.4050846700635504,0.36392434822727737,0.32281483350882945,0.2855245801177009,0.24896181993788158,0.2086631327541597,0.17444056449351075,0.1487789331130669,0.14553344609991092,0.13334254979551163,0.1145493682638008,0.10068472129925787,0.11528304010439028,0.13049928109826858,0.1401285934082015,0.14282960411401002,0.14448177520707306,0.1393789368134737,0.14252638612306923,0.14375502950799146,0.1440920200245437,0.14656404072367102,0.1443465122022598,0.13828646043719517,0.13722843436241527,0.1306059280816687,0.1294029799509544,0.12946207055787462,0.1335839318204992,0.13406945828303196,0.14162884286296196,0.15589678192538736,0.178239016558422,0.20414551873165254,0.23142947094542743,0.2520825538551621,0.24897819133537968,0.22225036052660196,0.19292870559783015,0.16252290021790627,0.12979963508360748,0.09949561612423108,0.07165760661413345,0.04192874491219989,0.018012925178234163,0.012784010695387593,0.023973435506311258,0.03863368808388312,0.057415859694515126,0.06848820278576428,0.07720972501529899,0.08482008539568153,0.09522201192755841,0.1103527662347914,0.1354817346294519,0.16648229389726676,0.20108328716858126,0.23652777016561677,0.2720932097297981,0.3102442120913034,0.3513841027538178,0.39254442459009065,0.4337046301744827,0.4744640167995937,0.5093600793392346,0.5485949061949227,0.5897498977614248,0.6309102195976977,0.671956938155124,0.7081987951868647,0.7458281991248916,0.7869553709327577,0.8280813065348789,0.8657210548404817,0.9019294291407127,0.9401454302326084,0.9737509812942249,0.9849187775451518,0.9595443479553762,0.9255123374076266,0.8859587458091802,0.8450603405033728,0.8096954885964496,0.7710675346110176,0.7299174802308963,0.6887571937260768,0.6478396277768808,0.6124036994005304,0.5738614740768493,0.5327120070595621,0.49155168522328907,0.45045492284719924,0.413421619129807,0.3766098778557174,0.33550653388822904,0.2943462120519553,0.2531858902156823,0.21203407408555264,0.1731193771989321,0.15228421322052843,0.1519264822685913,0.14344263584784378,0.12648570130549874,0.10524402806683986,0.10434101870430679,0.12132550953351529,0.13113277924813316,0.13936215602846902,0.14613830694938912,0.1465936739533369,0.14701377255444625,0.15206882364630703,0.14726159156280216,0.14659432058005617,0.14659380369127906,0.1465814100954499,0.14418583300794685,0.13616552444148589,0.129926438629425,0.13510172358479133,0.13834878348746238,0.14537825704056107,0.15877087959357294,0.18338544745194496,0.20849640172267558,0.23540792799821775,0.25303094812391924,0.2429427971786413,0.21894546022345884,0.18869841263299514,0.15597047716014822,0.12498963507102889,0.09411238982296788,0.0639343471438174,0.03980618630033583,0.01609263793938953,0.01617877345413765,0.029449050170242463,0.041729351329977904,0.05663738252559192,0.06584582434992092,0.07549865108707587,0.08257742414663682,0.0948858347179109,0.11538276085179655,0.14289358151626574,0.1732890592330485,0.20902656683017673,0.243486817067468,0.2805412592013863,0.31655475265172694,0.35324867902668555,0.3902819707769718,0.43137873315306097,0.4725390549893347,0.5136993768256077,0.5548596986618806,0.5960200204981545,0.6371803423344276,0.6783261144937858,0.7166476130114725,0.7522683402083357,0.7932194831489894,0.832464655575786,0.867259125987605,0.9033920035817209,0.9256854144894202,0.9121292126822573,0.8766018801155355,0.8414151400628462,0.8005068740977257,0.7594150688960162,0.7224805919762152,0.6855678742348679,0.6444617751899855,0.6033014533537107,0.56215523005404,0.523514356917496,0.48819700244622943,0.4472562678269214,0.40609598018237847,0.36494853906787017,0.32621346516372474,0.290975000581323,0.25007121443210223,0.21192305760962515,0.17760420060550985,0.1512327681534369,0.14422651332164005,0.13068499148180313,0.11214472769554518,0.10023884733042521,0.11018427054304913,0.12180207247779218,0.13137439434206155,0.13774230570936874,0.1379976300703436,0.13799766768124666,0.13799766768124666,0.13799881183332552,0.139026485353966,0.14566865284404495,0.14291441284879713,0.13809949116788767,0.13799766768124666,0.13799766768124666,0.13799766768124666,PM
0.1431598195904794,0.14046732032894627,0.13537516108377445,0.13440505244283962,0.1362688879076629,0.1363722440671341,0.14191347288071332,0.1575903347968054,0.17298491527509763,0.1720186579145101,0.14843840690372623,0.11784576719635897,0.09177340549485546,0.06300727887527324,0.036630494821740966,0.016067762132102037,0.013547160143597137,0.027927873325260255,0.04312926770197312,0.05939458180427748,0.07314790139877758,0.08186186118839245,0.09193263998484957,0.11336352039311481,0.14237197459135775,0.1742744375701556,0.2111685528027124,0.24563399694501842,0.27967914740354416,0.316733574594399,0.34917726607704724,0.3856664727816289,0.4233135605890662,0.4599954119764095,0.4923786108112217,0.5293683155548078,0.5670193045774771,0.604659889305789,0.6402282331708117,0.6732740241716232,0.7107235255236052,0.7483751169924492,0.7860223392386502,0.8222893870229985,0.8548453359577081,0.8920724327129571,0.9280045511890879,0.9575531372887148,0.9658143442534496,0.9386597171970098,0.9031699322682675,0.8702581211119981,0.8328544107715855,0.7952114983803745,0.7593062133908174,0.7265147740113064,0.6891501795985965,0.6514986315248094,0.6138469994249253,0.5761953673250403,0.5385462186727573,0.5019332374640987,0.4695469666818498,0.4324907192274535,0.39483955491006795,0.35718792281018363,0.3195362907102989,0.28188465861041456,0.244234306279708,0.2074188569407659,0.1751745795251266,0.1472777235749113,0.1426981239777222,0.1343343127549289,0.12424047324737619,0.1268277482851493,0.1135915421009398,0.11486094996942742,0.13023390942946456,0.13611056857075432,0.13627314577620397,0.13426083791057708,0.1290589784119235,0.12803897041051304,0.1257381569415016,0.12884607004700677,0.12958680886327645,0.13563887175998957,0.14915947274590813,0.16210806253669385,0.1565858440458764,0.13582405452909108,0.1080936654973409,0.0796502791579693,0.05163414370118902,0.02928043345859599,0.016966168145731486,0.026224703940936567,0.03995092950021173,0.053587090815920724,0.06499732181535756,0.07333961569779157,0.08574211346880423,0.10906930107655188,0.1372499251462963,0.1680146813107556,0.2003932888639871,0.23406073164023689,0.2685604941556642,0.30605726479397244,0.3396898821061548,0.37459619828381585,0.41221399491646304,0.44859919770405565,0.4810824125878542,0.5182701586877089,0.5559214115789487,0.5935677536954361,0.6297461852273499,0.6623566847002434,0.6996257863946825,0.7372772239939208,0.7749288560938058,0.8125804881936906,0.8502308001515458,0.8870133878989753,0.9162624733012,0.9245760195492004,0.8976538123199777,0.8612778339574038,0.828899316597015,0.7918728672096284,0.7542296412812818,0.7182697190255977,0.6855201507820877,0.6481691619094486,0.6105176315253665,0.5728659994254816,0.5352143673255975,0.49760166582946985,0.4628929250663544,0.42906994952777155,0.3915101870105092,0.35385855491062534,0.31620748672738463,0.27915144642413925,0.24674516592740992,0.21017488629658787,0.17508745308479978,0.14541722960155,0.13636169485824368,0.13277564784623686,0.12126799196828608,0.11767987021150683,0.10928784674987868,0.11275444688982172,0.1299656589406898,0.136194626974948,0.13901871086862283,0.1427082985657323,0.1373295370351385,0.12969609220438671,0.11679872503590916,0.10339489286382786,0.1057316506814473,0.11686179983543343,0.12666637716765894,0.14127191075031365,0.15651220314122238,0.15903415594970693,0.13928193159451563,0.11187590667894731,0.0836344277898925,0.05539702763667098,0.027953179892085234,0.003624471858742262,0.0,0.01727168677465507,0.031702881724304466,0.0495865004511894,0.06346800124731644,0.07554437917719048,0.08591567234432784,0.10457093713741805,0.13059080820617275,0.15939696400690695,0.19021548598243576,0.2256558629408857,0.2580452288527929,0.2941229007145253,0.3264985689151473,0.3634656060459517,0.3998974040094546,0.4323515252728888,0.4695206758082676,0.5071718864805365,0.5448234091253729,0.5821684455742323,0.6148996951957398,0.6508835212553542,0.6885276988955086,0.7261793309953933,0.7638309299270819,0.8012346402674938,0.8341464591630089,0.869894662012452,0.9074169086881579,0.9409169923256683,0.9756063601561226,1.0,0.9860354547485263,0.9545266399347144,0.9171712687203347,0.8795430849482221,0.8444649640622616,0.8109978756426005,0.7734671823818041,0.7358155502819194,0.6981639181820346,0.6605158685404856,0.6241856062983014,0.5916632933787614,0.5544595167456375,0.5168081057670623,0.4791564736671775,0.4415493868667354,0.4069763044082676,0.3730225343222645,0.33545229335209015,0.2978102048923329,0.2619595571689023,0.2291265255919791,0.19218321162988905,0.16297729641830816,0.15486083547114216,0.15127131793361415,0.14257770237613399,0.13619137683204896,0.12961008531912743,0.13307538062055724,0.1466690350107026,0.1536583989615744,0.15348259654153795,0.14998478211865585,0.14553269213755204,0.14044416104604085,0.1331558944054806,0.12945630875607372,0.1293943277577777,0.13210578901454284,0.14598001723456033,0.15460003528513588,0.1455927268645817,0.12198108537409802,0.09588844325096402,PM
0.04990513544984099,0.02091244856261809,0.002339147075464565,0.001077650542868458,0.01332264281547657,0.03964140190376708,0.0714551881065878,0.10874209397198897,0.14774188407978994,0.18846455255193062,0.22613270503803706,0.2620057920602479,0.3021027926661717,0.3389986718402276,0.35968607325449353,0.3370755494993751,0.2991062470351564,0.2651112545915464,0.2322843432946069,0.20463118572149352,0.18426165885422852,0.1703802674294772,0.16015362466102157,0.1496024749729412,0.1623505956073863,0.17718767844833394,0.17827990786641457,0.18268874775403154,0.21347038024294873,0.2501485836819237,0.2958962502670752,0.3437919397369429,0.3874747038859061,0.4265598904812975,0.47189385371409553,0.5185243987726951,0.5672591267320941,0.6184106178968818,0.6695125655959411,0.7172234831698359,0.764898140781801,0.8159950535925613,0.8671720203951183,0.9183489871976747,0.9692935693528888,1.0,0.9645801101697196,0.9187950729763918,0.8687887309281712,0.8176152850743015,0.7664383182717445,0.7152613514691877,0.6640843846666304,0.6129077574869348,0.562209451034773,0.5161830739282318,0.4664929605651955,0.4153360073334911,0.3660719826383345,0.3197699915734806,0.26904387769808147,0.2218724634286635,0.17429286436263247,0.1288263404313308,0.08527205343808353,0.04689616071771807,0.01780685100425028,0.0018952406969869884,0.0,0.014479856181049966,0.04299644502218147,0.07579330101545123,0.11226670101648373,0.15164294239385656,0.19124887768168564,0.2266420956058055,0.2611084859047057,0.3033512670167611,0.33558164230685494,0.327644199667229,0.29573380690623696,0.260796997822762,0.2270006676691907,0.1993793933284116,0.17564407383463565,0.16407848996252206,0.15360661589938807,0.13969629253017035,0.14449904585724682,0.1637058693346638,0.17242892751098848,0.17197794668482258,0.18427721918396145,0.22379175338616974,0.27102354036625775,0.31722757972544824,0.3641364063262773,0.4083889099715241,0.4471241176043568,0.49040253167646175,0.5292686485679128,0.5745208021203552,0.6253944168332544,0.6765713410862506,0.72765934111544,0.7752343690060792,0.82303252567575,0.8682332540144808,0.8586234507495718,0.8100642324038572,0.7588992327945572,0.7088464040182973,0.662958921008225,0.6124873861389781,0.5613136758890145,0.511120382197048,0.46526064054871097,0.41490234658034275,0.363942461276626,0.31728874854702305,0.26847325049441384,0.2173204722115949,0.16684182065958164,0.12458976928779486,0.0898890507236696,0.0533121882940647,0.024462333258346902,0.0083298627433398,0.009249035213356516,0.022989971499676853,0.05143245350057146,0.08808477367511336,0.12535659968346402,0.16466530191650297,0.2044006296189691,0.2441505702852691,0.28476088825342716,0.32456133116997665,0.361449409810231,0.3570838993865637,0.32244119367759394,0.2881302747316097,0.2540122782800076,0.22016393922967947,0.19258514945286764,0.1749922316254542,0.17230476569364161,0.16049363042402476,0.14586356499070408,0.15561144388453796,0.1730706179322974,0.17428924847007776,0.1702702140163952,0.1924283165240106,0.2342233583276483,0.2810111067752974,0.3267883110602978,0.3761176568794016,0.4153669789268659,0.4584251627095608,0.5092058052863271,0.558898113782079,0.6049235490441736,0.6556204130959336,0.7067970387283713,0.7579740055309288,0.8091433111375523,0.858772066696001,0.904830966951923,0.9555259686731534,0.9979250125127546,0.977335511411209,0.926813279630746,0.8757443823937772,0.8284402907873154,0.7803528499225167,0.7292288642428115,0.6780567582291486,0.6281905171767379,0.582253136178704,0.5316438011708753,0.4804980856784451,0.4319109899272402,0.38505655301433617,0.3342968240479498,0.28774873093090503,0.23896570301681597,0.19198286365730022,0.14396598583729525,0.09796264410289379,0.053510166466543274,0.02175526442290332,0.006677294241136833,0.00864587138995343,0.026439691923024644,0.05726044603292646,0.09138806397048294,0.13372355738304886,0.1754440486405009,0.21454084121008066,0.25511948302981424,0.29493491790400994,0.33551039971380003,0.3710300537248501,0.3717353072619545,0.3383216089342669,0.30255856369203227,0.26843755965813854,0.2362758980298829,0.2060816178613194,0.18452094651538298,0.17475185355435485,0.16259938187720135,0.15103277259509307,0.16038437280514328,0.1751839157082018,0.17790500280948707,0.17894486648222596,0.20625985166367378,0.25161374396018266,0.2975327027197392,0.3448200096132026,0.38866450965423294,0.4302430140096851,0.47927955429809366,0.5303938542332916,0.5785572017895746,0.6257917892660885,0.6768506913417236,0.7280276581442793,0.7792046249468367,0.8303279822947973,0.8784021378637725,0.9246905253416058,0.9389106582141682,0.8956042669022772,0.8494808239514722,0.7987309461508094,0.7475542410018052,0.6963778708876729,0.645783271601424,0.5998247072950649,0.5499646800116305,0.4988356616608087,0.4506024530269237,0.40343185871740594,0.35254941814822094,0.3055903826308297,0.2571216350944685,0.20680344812883744,0.16103032681641638,0.11431501919223086,0.07302562956148761,0.03547140735256338,0.012359909620307419,PM
0.2996216472738803,0.2766724332887799,0.2505338117844763,0.2348723363245374,0.2212002080029284,0.20979624909060834,0.21068104668781962,0.2291615047022696,0.23812928282614398,0.22831832908832805,0.21410662372267553,0.20329023519415468,0.2074837180738517,0.23385202014602757,0.27192862047629573,0.305096467049332,0.3398409059564088,0.38149751912311436,0.4216177392552841,0.4638127287998398,0.5074388038277183,0.5468170322376872,0.5903236356097418,0.6334511875651495,0.6729553475145441,0.7166283858416781,0.7566320186854759,0.7989468489161226,0.8396587318048269,0.8519289659442871,0.8143815721399649,0.7748451565030833,0.7320919567690028,0.6921839098528094,0.6498365939237954,0.6094697477880123,0.5675473271147532,0.5232299607179046,0.48198413254927097,0.4409669308694518,0.3969430643117734,0.357150716284503,0.3145022607068685,0.27016331284428097,0.22883776249178134,0.18913127008679542,0.15218251486538437,0.1301316308670576,0.12985765399803795,0.14196287974130906,0.15305514184100022,0.16047623336528838,0.18493216536714796,0.21470318287196577,0.24237218399493143,0.25126526201896715,0.23236147495826753,0.2161670835769417,0.21415597137493803,0.2144614466524809,0.22367231718891423,0.24501020673514284,0.26512264825089804,0.2582930674074019,0.2510411984643065,0.25526724802709044,0.25619359516364504,0.2781226632035526,0.31568004268779937,0.3547368154770837,0.39837034296340124,0.44232045617421567,0.4818496266600044,0.5249061695525431,0.5693034657174395,0.6137059371500332,0.6578331045242921,0.69771141909935,0.7402504374327555,0.7846400472529814,0.8290106722114589,0.8707890704734874,0.9113013475942494,0.9543918195426261,0.9656006398929625,0.9286789848775142,0.8843624836139389,0.8399599495976134,0.7957254638707026,0.7554598170844055,0.7134036613150022,0.6690502720847652,0.6270698758763019,0.5867329773420819,0.5424943902771794,0.4983075862165517,0.4609363310981488,0.4225235733975846,0.37825267965141973,0.3359015810159506,0.2961947184207886,0.25691191614985176,0.21906604442077915,0.18350425112165725,0.15450419254041925,0.14334305676604608,0.14963224787878426,0.1369656751023779,0.10944999723605187,0.07771167490028508,0.04683109908211136,0.040237396936605774,0.06637879127651547,0.10112093595891247,0.1370376713874879,0.1740157208668952,0.21204710434245266,0.25466226050576346,0.29366671832723557,0.3315561961394796,0.3668160870173246,0.38549528238487196,0.3659821265579576,0.3408457197510798,0.3142681431193851,0.28939197612312484,0.26789071307176504,0.25538250985728006,0.2513969359305873,0.2554768988752322,0.2559884720698341,0.2522734827620071,0.24338206622301362,0.23557548640430281,0.24672473656670324,0.27882253335631935,0.31828291049747237,0.3624232630069414,0.4068257970232668,0.45122800235746985,0.49520514190780485,0.5347657179634638,0.5777655009684043,0.6221623785588087,0.6665405781829531,0.7086138794775018,0.748865417606955,0.7930964260780252,0.8374989600943507,0.881822384105612,0.9228087367104761,0.9640538514221281,1.0,0.9799586222311009,0.9359909311993312,0.8918656018101766,0.8519927181145225,0.8094480206533609,0.7650568541844595,0.72066625244318,0.6780740567432958,0.6382347931322238,0.594122737652972,0.5497269456128898,0.5068650080492617,0.4672109249848796,0.42319032722611116,0.37969678258541106,0.3403174076220358,0.29771704374678165,0.25853723743013235,0.2195345933659204,0.18375223340560265,0.1526232269279736,0.12687498739332415,0.10452220764776965,0.0894034833073225,0.06282553184824735,0.03526388745489428,0.014566096230161585,0.005700111743536462,0.028062929559635075,0.060911125851833114,0.0961388105481088,0.13172512827830052,0.16913971431262376,0.20637548824969543,0.24241255736045464,0.27853658029507555,0.307878686645333,0.3015066815883455,0.279365487650887,0.25716493762418147,0.2356369883760564,0.22165496589557365,0.21262700888800323,0.2099977898469102,0.22263465321785814,0.23308036191344483,0.2394931255326388,0.22779516098272679,0.2113073762212142,0.21199078210265665,0.22457936642009246,0.23449754236686304,0.2266197604069039,0.21642358468104084,0.2100470569958256,0.2074087220951496,0.2385490111517804,0.27809332210472093,0.3174267391556084,0.36124577102007016,0.4056251789859092,0.44777049148607395,0.48796277325678117,0.5321791772533183,0.5765817112696446,0.6209841740048004,0.6650908958740519,0.704919158660568,0.7475273409741233,0.7919182928051868,0.8363092675581777,0.8788361779136596,0.9186809918508884,0.9538739601583756,0.936292626421437,0.8947539438586684,0.8503798838773876,0.8059820694774055,0.7628552524383162,0.7233577060863604,0.6794453703686435,0.6352190005941108,0.5949843928528701,0.5528905169281463,0.5085117888389549,0.46423628923861504,0.4236951098974112,0.38194805250224617,0.33812840016578216,0.2987017884436868,0.2581497338668489,0.21856704838604124,0.17973604238338647,0.14300305204147712,0.11285432535298756,0.08968749531338438,0.07734231853409779,0.07165582558629802,0.0514010895981839,0.023196865106351328,0.0,0.0062850415620928635,PM
0.17822807390371143,0.21796801126016652,0.26430920358338295,0.31732427738966207,0.37305554596968404,0.42429930659547166,0.476095049761581,0.5236803800588516,0.5663826798550913,0.5908159465111482,0.5745859758623912,0.5301660484756727,0.4766505256831768,0.4230817479217652,0.37315712722387495,0.3202542568962299,0.26726641065018164,0.2192077764023459,0.17238204402747748,0.13414622248279695,0.09842931246905406,0.06329886830755971,0.044675983194432334,0.031400848075443744,0.01738229829810134,0.0038997815264090185,0.004715055976657112,0.0361623960678088,0.09251729815697818,0.15386020240997356,0.21173991297976658,0.2559493999768332,0.31708685754472876,0.37672078376542295,0.42278815891094945,0.48076111659279697,0.5514656950821744,0.6228880662826728,0.6943105734929746,0.7657322303118845,0.8355373811822111,0.8929476010701163,0.9414146760664308,0.9351546721974686,0.8774722135778839,0.8182177405067557,0.7513535927828281,0.6802146693463582,0.6193948263409155,0.5541914214297861,0.48292579844721173,0.4202428270942624,0.3572467379871149,0.3022776319110583,0.25515632632539553,0.20158479097219617,0.1442072579972109,0.0860032577870884,0.04683386759894592,0.04483162393982587,0.0481582511358436,0.09119089752380738,0.12322729667491616,0.11513425367596941,0.09763062624578422,0.10341910211102245,0.13427345146224345,0.14825592485902117,0.16178964421399034,0.16465932052865728,0.16926631967026262,0.1781910098353725,0.17531828199869448,0.18170856660371904,0.18176777594761573,0.18357345650532597,0.2108527838112746,0.253340496193851,0.2996467254178219,0.34339819860047704,0.39588961419002633,0.4494413359398015,0.5015640932643461,0.549320142115965,0.5948610456147558,0.6296593334917273,0.6285858444140402,0.602430112902594,0.5566551163454858,0.5031447914844618,0.45205651525353474,0.403934852904106,0.35090138696370055,0.2973879418947356,0.2447650589767827,0.2017986635277409,0.1659434097958159,0.135657032128762,0.12418466595390587,0.10011244180457313,0.0961275859287003,0.0888889953710379,0.0891180870203736,0.13231876014825072,0.18775062986835067,0.2464180406004184,0.31318116543026386,0.3819438599583336,0.4400020921864707,0.5103174737559963,0.5817395729368888,0.652533186240063,0.7113751407563775,0.7788982581585642,0.849087381952697,0.9072159922187848,0.9709409534375624,1.0,0.9725865233900826,0.9121783847655718,0.8410677649728004,0.7786877413186324,0.7151058201335547,0.6449021851042542,0.5869144606157142,0.5180343271163523,0.44680627489061475,0.39017134872770853,0.34787084322542405,0.29448188260667285,0.23716547065334792,0.20285736759603212,0.21323679513999938,0.21324325333985428,0.19195588313856993,0.19727518268783273,0.18987135844430014,0.15986671199159508,0.16355076160174153,0.17946965553255367,0.18069243689426795,0.1697530555723099,0.18009149414796166,0.16951143937823865,0.16389167302427765,0.15183323962855155,0.15915115987616302,0.15016804621658508,0.1504652622265703,0.17091065174876308,0.19759230065946687,0.23272160113413998,0.2744750929669273,0.32256628560259326,0.3760421319923428,0.4333677664447877,0.4819242918102109,0.5295579080053159,0.5747377243178056,0.5884722053760112,0.5630911786078201,0.5174644687208523,0.4621927551668503,0.4075057396805004,0.35767529405070775,0.3100732576660099,0.25974623653693785,0.20970310022773475,0.16707159801962046,0.12471237498577414,0.08905721229968888,0.05678937900388137,0.043048121560530284,0.02926174579048757,0.017670660841893504,0.0001624798231540936,0.0,0.038626661239714366,0.09780292365648258,0.15772367191407222,0.22365072250079887,0.2943657703675444,0.35296673544448476,0.4207783717410276,0.4921819772917635,0.5594961442495001,0.618585552169229,0.6893410200631251,0.7581958813180538,0.8161931254789074,0.8808627438654146,0.8911623585040642,0.8346317558941769,0.7765127610077323,0.7079477000839738,0.640957118534351,0.5816693335551943,0.5110222982990273,0.4497480337454127,0.38502104093486667,0.31528711481800054,0.2702796967921941,0.2267252208395223,0.17014030547785852,0.11583999966860947,0.08191366633145192,0.07498215645854422,0.05912363178917568,0.05459936569075685,0.04418574217233795,0.02418607930318295,0.016486079420306332,0.03486714212679809,0.06023650350401599,0.07663308905523403,0.07905998715311746,0.07906340259445788,0.0790633827872047,0.07851207289821716,0.06644337763112862,0.06197619553515832,0.06676613572868151,0.08411964998119004,0.10884781246861541,0.14450507289056436,0.18986212491277632,0.2370718913329295,0.281292353165691,0.332653238869121,0.38384379255142287,0.4339267163253826,0.486740421579098,0.543510642312167,0.5824854485426503,0.5885878395925044,0.5547341737090918,0.5107621789129344,0.45935332600710055,0.40822281866263976,0.35460598502631857,0.298734575593282,0.24642666046897288,0.20224366681298145,0.15489505725470964,0.12281155541520317,0.09628030197717363,0.08009802261745946,0.06406469587270802,0.056970850982819954,0.0453913731729072,0.055707676076899304,0.09525675077824891,0.15230662520436233,0.21675140663386738,0.28130489153313354,PM
0.07069109756515535,0.0437090291558595,0.015251883463189508,0.0,0.00412223297186054,0.011188871095734965,0.023553188974447248,0.05336865185584072,0.09013995752560677,0.12779608054886982,0.16659590087614262,0.20871535241726802,0.25282216512987143,0.292620413623897,0.3340045486587335,0.37304994572919026,0.416279191123883,0.4566487963903165,0.49810406739160884,0.5424003749753528,0.5854580613927023,0.6246204806393647,0.668420372854212,0.7127394042670063,0.7547216356271054,0.7946255540158957,0.8387757367676623,0.8826674178399649,0.9218943719870998,0.9600768807624989,0.9611471431975422,0.9261703949409443,0.8847381546607336,0.8422356440926135,0.8027708485513303,0.7588349070991456,0.7181383133823789,0.6770200688578629,0.6327332389638403,0.5883928260727049,0.5440524131815698,0.49972165321407136,0.45715359463211214,0.417707206818247,0.3739093631291699,0.33664528459401155,0.30481124672896276,0.263220916415396,0.23029811353196528,0.2178122719930451,0.209779153315226,0.2037463556069381,0.19096737237989014,0.17708340776565334,0.16985859883960597,0.18353883264635962,0.18625918540501463,0.18417653640011622,0.18889810283979758,0.20089477102103714,0.21611931242597127,0.217410860533646,0.19661147853904337,0.16697112919441004,0.13528326892567022,0.10084653474973249,0.06756185111579116,0.038167812791795264,0.014691269502433046,0.006810115664843908,0.011477741317102552,0.016339703966206542,0.03916212563783272,0.07316579706491466,0.11199813003812698,0.15010649200481696,0.18863171045387372,0.21923947342944072,0.25692574795866596,0.29605446553483206,0.3380464598468198,0.3775470159867178,0.42109543842653196,0.460279682922081,0.5032375741324937,0.5451288083488781,0.585101244069286,0.6292717480327417,0.6735215375063479,0.7141534270130414,0.7553401250473339,0.7996279157380952,0.8439547390392061,0.8861840768981217,0.9255204998189375,0.9512720406687067,0.9280551397011556,0.888757249213147,0.8476808139897833,0.8071145431292572,0.7629981375754735,0.7226851661143141,0.6811593563800671,0.6369811476290146,0.596657211680202,0.5551432322987153,0.5109641820373176,0.4708291644366127,0.4366088501663954,0.39882161203129374,0.3586122097664506,0.3171248842483385,0.2739205795023296,0.23616704083552076,0.21590785808494584,0.2117296803705313,0.210223403267207,0.19955568457138817,0.18491379479432846,0.17083908722588714,0.17741929397279654,0.1859671980350297,0.1870602042360492,0.18754710166496014,0.19856556717916174,0.21675258451683233,0.2270496764159713,0.21003382734629006,0.17972501304895672,0.14821554515520696,0.11723711599185882,0.08588853610309766,0.05696287933602329,0.028812030865261073,0.008068891693849722,0.008175681461395357,0.017087216089030965,0.025604452016045665,0.054252034085829015,0.09103985649709068,0.12889163627311628,0.16848992719221179,0.20755822136760682,0.2473209036724633,0.2914271881268551,0.3335380418727294,0.3733391842640943,0.4174104690762086,0.4585852283785785,0.4992271344693089,0.543427074797316,0.5846131828126908,0.6252441244157689,0.6694901405009153,0.7130444911157188,0.7520977199851546,0.7955088094618796,0.8398225241776505,0.8816759764450621,0.9213231489113884,0.9502108958656217,0.9343203601802408,0.8972423583305436,0.8558839832108269,0.816200926372028,0.7739897020080551,0.731311057912378,0.6919442519195258,0.647980240664227,0.6036399940743038,0.5592995811831691,0.5149592098673357,0.47085612475567795,0.43111496233633484,0.3890958701764695,0.3491187623791294,0.3072608905783121,0.2651085310020074,0.22880266184917608,0.215359703750015,0.21373980151984706,0.20737097190720077,0.19349075672298754,0.17584637397453484,0.1695738099044959,0.18343499435444333,0.19177974184907542,0.19420977084179847,0.19946076934329549,0.21303094017492819,0.22659501159483608,0.22061739623069676,0.1935805784322422,0.1645744313059192,0.13054977977747706,0.09888917383333218,0.06442022335590303,0.03705088748738983,0.017456142378387995,0.015188713228575734,0.02326508341580491,0.031342715632445506,0.05584745703138605,0.09219224787588787,0.13089702209046195,0.1689633613346515,0.20706392939586915,0.24722198557183606,0.28627305406600967,0.3293314324087264,0.37106274371164094,0.41118091227608766,0.45453007184248007,0.49357372016886747,0.5370471393586949,0.5805518716231193,0.619596603041539,0.6630643557671614,0.7074031536095071,0.7516417816604202,0.7921324226098765,0.8334649437498594,0.8777593496057461,0.9219638963552856,0.9621620616617712,0.9998099536642906,1.0,0.9656344279848472,0.9228545108987585,0.8807965865959548,0.840958337311857,0.7968271733226586,0.7533027976934021,0.7142665637259991,0.6708082846802625,0.6266544596522596,0.5867334119305654,0.5447943994360105,0.503886186808443,0.47188476350107766,0.43262827765737377,0.38885014718794,0.3495560174505259,0.3067721824460359,0.2638697011267108,0.23078116434738538,0.2209939840458106,0.21424210689361445,0.20477534938889286,0.18931047506667498,0.1747529669949497,0.17037975495254587,0.1834867520553809,0.1869713520174192,0.18369762057323036,PM
