0,1,2,3,4,5,6,7,8,9,10,11,12,13,14,15,16,17,18,19,20,21,22,23,24,25,26,27,28,29,30,31,32,33,34,35,36,37,38,39,40,41,42,43,44,45,46,47,48,49,50,51,52,53,54,55,56,57,58,59,60,61,62,63,64,65,66,67,68,69,70,71,72,73,74,75,76,77,78,79,80,81,82,83,84,85,86,87,88,89,90,91,92,93,94,95,96,97,98,99,100,101,102,103,104,105,106,107,108,109,110,111,112,113,114,115,116,117,118,119,120,121,122,123,124,125,126,127,128,129,130,131,132,133,134,135,136,137,138,139,140,141,142,143,144,145,146,147,148,149,150,151,152,153,154,155,156,157,158,159,160,161,162,163,164,165,166,167,168,169,170,171,172,173,174,175,176,177,178,179,180,181,182,183,184,185,186,187,188,189,190,191,192,193,194,195,196,197,198,199,200,201,202,203,204,205,206,207,208,209,210,211,212,213,214,215,216,217,218,219,220,221,222,223,224,225,226,227,228,229,230,231,232,233,234,235,236,237,238,239,240,241,242,243,244,245,246,247,248,249,250,251,252,253,254,Target
0.03872016794284061,0.056402514099793244,0.10160844952421111,0.144971396147914,0.19145560661998418,0.2171740808389877,0.253881347804384,0.3083571288947453,0.345327082323162,0.3667220654302945,0.3691615631274068,0.3688343088747683,0.35761465069564236,0.33063045296362836,0.30854321719259503,0.3260563769836924,0.3537434851371144,0.3870286833337617,0.4144311480129088,0.4469843813145504,0.4610941318068653,0.4480869301425574,0.4096356077907537,0.3566084245447734,0.3230053387231451,0.3517336504901787,0.41311023577311023,0.47692287238110853,0.5378902424923926,0.5919897353334502,0.6551450624414985,0.718967461563212,0.7827462869206465,0.8395613413434606,0.8766479217580494,0.9341654963908239,0.9877690767528733,0.9999999999999998,0.9453236949484045,0.8915489101628691,0.8288138677880872,0.7730862386581367,0.7141823264277203,0.6550813546815826,0.5996171919144782,0.5431782866894006,0.4967102646617405,0.4543795550486258,0.4318995651225481,0.40980429758609893,0.3796241412466077,0.3412693388138883,0.29640931119463265,0.24888793927639408,0.2034920429475089,0.15895588323369636,0.1086635794015236,0.06310290563840071,0.02463115735939314,0.0,0.009891671510705802,0.04482516307534712,0.08378783680894464,0.12743474739523863,0.17506358527187205,0.22062123822127666,0.2728014362890179,0.3166106872980723,0.3470296549954448,0.347899690836319,0.344235428389039,0.35074028840163307,0.3506503604026443,0.3314203377931848,0.3057077939383628,0.30087243130812724,0.32889456466803124,0.3582064767044042,0.38989066764755465,0.4144964689510189,0.4317689011846111,0.42083258326020156,0.38984300550501616,0.3391759942596171,0.3097713359246128,0.3469310993859114,0.40009921610752275,0.4628981199695532,0.5267192722046927,0.5894490330288342,0.6375288458649846,0.6801696881878871,0.742245351860692,0.803176861646109,0.8571782795988654,0.9135600026919046,0.959662190449367,0.9377161193309311,0.8775548960731385,0.820203903952389,0.7629922937058107,0.7024331367376433,0.648190237552787,0.5894658168543072,0.5361723002686298,0.4867369653872362,0.4451343605983469,0.41444468553401026,0.3960709472406101,0.37064758534294007,0.33448401865680233,0.293651178443721,0.253237258519176,0.2063730629396403,0.15996402801080478,0.11666208212519891,0.07129761736016138,0.04344674241888513,0.04593658111912613,0.06715526696916241,0.1001115502092671,0.1461414413890958,0.19142420332543764,0.2335815521883331,0.27113979678136624,0.316249821947568,0.3513105738353961,0.3676803246445497,0.357227006600753,0.35022860578799375,0.35335592526589665,0.33834817137877926,0.31920217053386124,0.32789581194984785,0.3527730291541131,0.38700375610178095,0.4147971205308181,0.4436568089258286,0.4468562210390761,0.42575115515751416,0.37313773384267335,0.32325789426740603,0.3181371613257553,0.3665521939470058,0.42959691160428837,0.4872218962592967,0.5441744350146218,0.6079015702027355,0.6716953227369726,0.7311315582504798,0.7864036763692874,0.8482586798921561,0.9016906683138364,0.9592083047145306,0.9999017363808196,0.9667257330102095,0.9126194027933303,0.8494078877915043,0.7923734879451245,0.7348308076470371,0.6727667552288368,0.6193670742078312,0.5647039472898403,0.52015830862428,0.47344930569308885,0.4368078004521203,0.40598191937935924,0.3827387218434304,0.358948709476153,0.31997332756825814,0.2744638237265373,0.23050114052155402,0.18516628006660873,0.13761197188546492,0.09713004556916705,0.06568033007111018,0.060963948212571006,0.08190291693018881,0.11818795580907304,0.1580558611666587,0.19915343099455596,0.2471638355554424,0.2885040110979633,0.33689179626291677,0.36907490013463184,0.3821579370777417,0.37715509977706296,0.3799389706249492,0.36509285039218686,0.3393536934994652,0.3311092820192403,0.3495056850325009,0.38370221994658293,0.4136471148585905,0.43460419286599117,0.44572828255544406,0.428043599291309,0.3909895251288218,0.3389453822130071,0.29570646895713915,0.3202773688387264,0.37278969526949246,0.4338010483411685,0.4976152709669244,0.5613555935494892,0.6191317994356187,0.6759334475105245,0.7358847628130871,0.7798162992334368,0.833955282334877,0.8895394956856315,0.942969933034824,0.9979634869141536,0.9832709697769453,0.9222911390581723,0.861599349209426,0.8073505150477203,0.7441584541101138,0.6869697170073807,0.6296365504360597,0.5716289065941671,0.5208518860961224,0.47704718968352,0.43680324598346565,0.41245570411626375,0.38598737718042275,0.35999588985635866,0.33228855239488886,0.28848961886019464,0.24525908988112888,0.19869802225778943,0.15199853473868852,0.11260478784581851,0.07714872831664699,0.06891379164317768,0.09647580584883797,0.13528236201973098,0.17128440570411163,0.21419858935592528,0.25828646207200134,0.2974687954201982,0.33635716437625773,0.3584774516455227,0.3582380151781288,0.34667420876650845,0.34858585765305494,0.3347678965108536,0.31168349827398045,0.30768930114101667,0.3330344919058763,0.3584060033854215,0.38051692627794,0.4126379002213343,0.41146005790553564,0.3971193198388179,HB
0.3080360712183839,0.31226580630483375,0.27447456956299837,0.26080386868134925,0.28683787714031855,0.3143332655808379,0.3491612093532607,0.38136588551674794,0.4068141130181456,0.4128526922042624,0.43612812603009216,0.4523017762651716,0.4207212662788263,0.37014665415808584,0.31732690504130207,0.2613086492485294,0.20712305036446826,0.1522728751043188,0.09566890701646513,0.04231274142456859,0.0,0.018359500029005937,0.07321989559015646,0.13015276985498775,0.1870898199616307,0.2440268700682739,0.30092404079103213,0.35585607769296274,0.40997244870359956,0.4667823173802573,0.52371936001786,0.5806564101245031,0.6375922904578044,0.6940415510036422,0.7474086514767269,0.8034171427146479,0.8603488836161457,0.9167742181718381,0.9491789566265223,0.9165705541010623,0.8694817425595163,0.8250913770162343,0.7714367510762921,0.7181161289231546,0.6632289116225671,0.6098248842976235,0.555752112627099,0.504180169920529,0.45882035480267463,0.41687334784983504,0.37596131410048134,0.33413342645900285,0.2945888079873839,0.2870639425370099,0.3198935912542356,0.3562922548364586,0.384506637407603,0.40115978128877533,0.3959814079082689,0.41917472784589277,0.45049469090803823,0.44724763750944824,0.4004917429890518,0.3443436191556218,0.29056530638851424,0.23523398411215285,0.17848645408748393,0.12690140708853387,0.0820376134431452,0.03639895759424777,0.02046027075429585,0.06299761716938701,0.11913232892074938,0.17604357841835444,0.2313259732438117,0.28514465371090564,0.3418850872044797,0.39882202761405144,0.4557590777206944,0.5126956188650069,0.5692914375593805,0.6227950623963565,0.6785245518957435,0.7354515676702804,0.7923720482754901,0.8478347477681498,0.9015134414565498,0.9580757187801423,1.0,0.9702098387762044,0.9137812181881613,0.856942230126907,0.8026557045168332,0.7482323347271125,0.6947553843800047,0.6395028017783662,0.5861709574992884,0.532864708090983,0.4838005048368657,0.4405830267200705,0.4003438168150744,0.3552447500353619,0.310827872577295,0.27328587337461746,0.26961481051698094,0.30261700546583686,0.3354366064160535,0.3662164979632145,0.38802254965998945,0.3943441303901937,0.41960841341606686,0.44866178453669775,0.4373484590589662,0.38873877991830913,0.33562326257210023,0.27922766328568477,0.22380250381694505,0.17009491291217077,0.11354100713090215,0.05961883149415387,0.013872012093817165,0.026507827046724664,0.0801645518325112,0.13549719587896375,0.18926125407801758,0.2459849689695653,0.30292186550183114,0.3598581811462331,0.4164057507832018,0.4698473957787734,0.525685216222251,0.5826143554514172,0.6395514055580596,0.6964627252480107,0.7516632091718161,0.8055475452128029,0.8623069190057902,0.9188535550118166,0.9525886783954465,0.9146768544693653,0.8607764850296564,0.8059624796335279,0.7514434900192504,0.6970401260804948,0.6424968219425002,0.589837001038835,0.543240530496067,0.49279460904447575,0.4445832372170149,0.4035997912629889,0.3609723134360712,0.3167749280175857,0.272278650149735,0.24414865535982327,0.2635484476042838,0.30282815091007537,0.33505617941676075,0.36540593414928274,0.3874343682855989,0.40211648744264733,0.4303940401958158,0.4447165052979692,0.4107425177437161,0.3597078839078602,0.30534276024753254,0.2515695493859675,0.19631535012207119,0.1404916648366466,0.08706816820000463,0.03272810186597541,0.008462826775403609,0.04729487908201835,0.10123432959547651,0.15802536109998017,0.21317182296022336,0.2670999293838063,0.3238719432050033,0.38080893060644766,0.4377459807130912,0.49468303081973347,0.5516200809263769,0.6085571310330207,0.6654941811396642,0.7224312312463053,0.7793564909373507,0.8350125802112938,0.8885565769196113,0.9422602139422656,0.9463694298062932,0.8955572177547626,0.8417551586652883,0.7866186320040549,0.7328458967749647,0.6773485315856547,0.6239614037777557,0.57023672322146,0.5174326344617639,0.46804634675229234,0.4247823855573916,0.3829783231935456,0.34151752517729334,0.29986698244833826,0.2743950917093862,0.29939663925410814,0.33439888151404334,0.36330496904273896,0.39129837953385554,0.39544987723309205,0.3955343214800742,0.42444308747526754,0.4508676983368553,0.43162884650315264,0.38232601183193077,0.32816373593463427,0.27413377267276434,0.2173400541146377,0.16040302515580024,0.10352419203162222,0.049673281707888595,0.02385043961206168,0.06101434766514968,0.11513881285054711,0.17187989589662095,0.2260652900475864,0.2809200554311913,0.3378124512274277,0.3947495013340712,0.451685589200787,0.5081730546885179,0.5615667260330659,0.6175109564394166,0.6744419912836572,0.731379041390301,0.7883146427003322,0.8444775593176403,0.8919658534884984,0.9231057729240839,0.8867004526727156,0.8319833221179105,0.7779195191634167,0.7211194015806996,0.6643128680840893,0.6102269057622838,0.5565938549199461,0.5051659350444977,0.4575883612121456,0.4166674078968133,0.37631374830921044,0.3311236136361841,0.2874863915838836,0.2631282115186861,0.28524105653927706,0.3213738017872721,0.3484814399369935,0.3784477067306133,HB
0.45219281506368936,0.4469742380759465,0.4430934263189794,0.43662070848113865,0.43489254474614936,0.43488711586979956,0.43375382405166096,0.4174820651033784,0.38612413756231523,0.35066752704026394,0.31225568116097624,0.26983060995028363,0.22500651134563565,0.1845206033884066,0.15314465756532947,0.11657219667368013,0.07588248415413146,0.03714689210640576,0.0034968868784521767,0.008109792494562562,0.04038771976507527,0.07986864760017687,0.11579042544737561,0.1519186123317544,0.18520226525895245,0.21820906204138235,0.2510994018339263,0.28091169100389246,0.31244891282086873,0.3386200092836704,0.36180179308909,0.38081325957121526,0.4011630618728159,0.4255820322571726,0.457530883051928,0.49738188069393297,0.5411286939214284,0.5893146357494179,0.6321255663345566,0.6806922806166378,0.7302004103410054,0.7788149344207043,0.8216719267024026,0.8699951648634905,0.9186079734688803,0.9613439517196165,1.0000000000000002,0.9900447888607544,0.9456651533715925,0.8962379587769398,0.8501526740296466,0.8057693646054553,0.756420690729307,0.7090668719788242,0.6657292171932587,0.6166192688426597,0.5671092341797637,0.5175991995168674,0.46819584015057103,0.4241969267782777,0.39005911499615276,0.34935820562850983,0.31258692510054864,0.27111695835138017,0.23182739382596584,0.1831948698683239,0.16014234507428338,0.1973618547019258,0.24675018636102664,0.29596181179039616,0.33956454092033717,0.38654604891630906,0.43355984010764925,0.4742826767882933,0.494855290031601,0.49559933390440225,0.48682266549432907,0.4760685074190749,0.45923003282709374,0.4634545563262007,0.469762877573658,0.46977933674528116,0.4658835984608669,0.45774521450607963,0.45071757858159,0.44412714641160855,0.44362561726330707,0.4434387191267857,0.4348637601003733,0.4089418468908701,0.3763304157839551,0.3405399543493286,0.3010495750224731,0.25560700733273345,0.21147175045619715,0.1703015408825561,0.13037145551865637,0.0891346768074015,0.048322383938911084,0.011688960076980281,0.0002130999562679481,0.028689841185690845,0.06427801242856446,0.10397381398036676,0.13957680613899637,0.17374428908291795,0.20890711802670037,0.24011029561892405,0.27130630312876103,0.30236842009047504,0.3312640470782513,0.3547211247795514,0.3764800573913585,0.3965977221764101,0.4202701190351077,0.44852521216012287,0.48446932139998755,0.5268874316144891,0.5729665559780319,0.6220438924907041,0.6653815472762696,0.7127353660267519,0.7622365493656456,0.8110480641627917,0.8539511181410495,0.9020335263428518,0.9508389915939641,0.991715814305248,0.9994266665685927,0.9622760248798248,0.9136787740917367,0.8644019740945734,0.8204798297878308,0.7738680976081425,0.7244582734646203,0.6792759582092631,0.6340279291883641,0.5845833640607851,0.5350733293978898,0.4855632947349944,0.4360594204558479,0.38834107273694074,0.34526849229575074,0.2962599867811557,0.2467501863610262,0.1972403273802048,0.1492625213798624,0.14260054783334764,0.18645381417649198,0.2297068338573558,0.27878620826428335,0.32809939365104035,0.3720634514919614,0.4184942077112894,0.46248523281746867,0.48574474737122375,0.48724820936566027,0.4821542609556704,0.4751116589246551,0.4646123881594246,0.45884051928467384,0.46883384618677115,0.46889079448010684,0.46189740307438054,0.45461593083283725,0.4461241950084771,0.4362756289389984,0.4304897412881685,0.4346549002337441,0.43334216404036763,0.4191130989089422,0.3932658208081954,0.3600774999558598,0.3222181869435998,0.2826134872907582,0.24295436045535101,0.19986002358575883,0.15245677851476636,0.11193170091391069,0.07233723832491501,0.033032330890784944,0.0,0.007380695575619933,0.04137367289430305,0.07754889745733151,0.11692246731803269,0.15248619863063984,0.18617172366654833,0.21914075184806014,0.2496086309497516,0.2779868960349645,0.3036829635514262,0.3277425076035887,0.3453889883877581,0.3622794202362767,0.3853482973936093,0.4153575398971019,0.45395787615344085,0.4974113137602456,0.5433737185810916,0.5876652348169369,0.6370057537038532,0.6865115617006283,0.7342934326285355,0.7773647994078412,0.8263083003687011,0.8749226487663258,0.9176593159632147,0.9570159112317163,0.953683614762302,0.9107138415893683,0.861257087176968,0.8117470525140715,0.7622534770227984,0.715258333362311,0.6716556042323696,0.6224439788029987,0.5729339441401042,0.5234239094772077,0.47391393337500265,0.42469938825030784,0.3811466158726664,0.3341072001016181,0.28461080110324066,0.23510076644034417,0.1855907903381393,0.1364424006043583,0.1067108932921903,0.13916021792101696,0.1885030867576194,0.23786014347223983,0.2822434528964315,0.32832451097760385,0.37605966591753526,0.41550916822734774,0.43400526054259947,0.4313422366409383,0.4202053287925036,0.4132447595127713,0.4024533730958517,0.38878787910625423,0.3972738233576236,0.3964417018880573,0.3883043157044863,0.3784450294752395,0.3663729321015099,0.354204276581912,0.3511296038307701,0.3604064155116318,0.3626193769625268,0.34368034090005306,0.3101339284250946,0.27303431946119794,0.23571188244547336,0.1996682446920064,HB
0.017901111172434536,0.03260493628496275,0.07135439654701159,0.10861937365593044,0.13765729865324539,0.16605903556620083,0.1808018832478433,0.188354699349212,0.21212678712679955,0.25478818612677556,0.3040367594864348,0.3570388718883115,0.41005887375143013,0.4597272291113592,0.505897944541903,0.5453624467657616,0.5918434789826985,0.643346120917919,0.6906864521114058,0.7430576096141488,0.795544004217188,0.8429725433603674,0.8945594041086049,0.9454042174201736,0.9895148830162026,1.0,0.963406119348492,0.9121371830804206,0.8611002014507021,0.8133348420768585,0.7606185717035834,0.707834289274669,0.6599285022060881,0.6091344935548766,0.5592439880363085,0.5105294541096448,0.45778453587911483,0.40938989346419374,0.36095443171986163,0.3136753675309527,0.2663813781781419,0.22882946522477088,0.22652280580846607,0.24268170026166147,0.23602055184765947,0.2152992196344523,0.2221426927299146,0.23319285926823086,0.2324585754497559,0.22065256550776424,0.2007666151487355,0.1666501208959712,0.1212173836765964,0.07888891770797413,0.03668938930579424,0.00022477358127970248,0.0,0.0346339010809924,0.07489205404041477,0.1108188371195391,0.13754928938895294,0.15768066950816384,0.17598978753019323,0.18908402301697658,0.22234439895153946,0.26799208430314225,0.3185239083724005,0.3658773208982351,0.4176302891849939,0.4706853768173984,0.5214549097241772,0.5693786773293046,0.619172216912709,0.6677344624991866,0.7203009487677887,0.76809893052258,0.8190779265930741,0.8687622972968692,0.9036190456432691,0.9183694223970795,0.8846393488422131,0.8334356205523046,0.7853205403871382,0.7347511085823566,0.6837060955013388,0.6359680797914466,0.5850545375068088,0.5377533866238895,0.49025248245332187,0.43943920652827106,0.3864787676669841,0.33739621948913623,0.28991415756875516,0.2477440372619586,0.24433618859438133,0.2526837523757388,0.2675518950951954,0.2771087383969615,0.2553231055554439,0.25315611126683013,0.2640672937761255,0.2621185060290585,0.25432102319569716,0.23120681702537427,0.19561708005057965,0.152307549241691,0.10991290803016485,0.0719605892127324,0.0666133624491625,0.0998671718394939,0.1396581945333677,0.175373507315413,0.20020072402133304,0.21960720850088333,0.22887829778945323,0.23414468809901567,0.2678047973985258,0.3146191490775687,0.3619836601837114,0.4144486880677549,0.4635452922447183,0.5094648031377849,0.5516240805896409,0.6025863634208506,0.6498879802777071,0.7021206918062608,0.7543165687497138,0.8015725274538792,0.8536250019450902,0.904728806529836,0.9515143480559787,0.9812495440414208,0.9573040466927525,0.9070812127611745,0.8593007440305567,0.8082948310841656,0.7553463542360279,0.7064696389524514,0.6567404221229247,0.6045022676809606,0.5571943260492989,0.5071788985749841,0.4613053870136756,0.4141383513462171,0.3628913893993575,0.324292567743347,0.28173733301683135,0.26150883651934187,0.26516048069351084,0.27349689660358134,0.2570444010541979,0.25482512271106383,0.2654929792108449,0.26899233853992377,0.2590387034617365,0.23382006313061932,0.20378304006549142,0.16359961917826937,0.11755268489170079,0.07582271330384294,0.04341836755026196,0.048435821774176935,0.0828545159017009,0.1194617003806211,0.1488348886349875,0.1719770204380997,0.18164880878434908,0.18544328081827732,0.2129392741583762,0.257131486166869,0.30409665475623315,0.3561226540747271,0.4040299615711218,0.4547691562574603,0.5036688232635782,0.5533566438121198,0.6063808498237089,0.6594489722066215,0.7106724380097424,0.7583210975999717,0.8109651249000449,0.8624825193012187,0.9098990914118075,0.9585899910186875,0.9809116241854006,0.949150700195893,0.9023371724058191,0.8509609857854459,0.7979690636466001,0.7485869216628935,0.6993733809939324,0.6469372571943806,0.6018338512743393,0.5616548824734469,0.5124971502487785,0.4654001288231473,0.41847921026346824,0.3702823520914762,0.3210827072066791,0.2698176469222471,0.23223148685677142,0.22785630158855508,0.23371631836046802,0.2329437597583588,0.22081819087604582,0.2313524388388004,0.23782042135498682,0.2371633873832757,0.23098346420454918,0.20833912576955593,0.17256757001163114,0.1264901984189426,0.0822047716334533,0.03860491236236974,0.007145277261198402,0.024138893051711685,0.06113930405453272,0.09969745455418644,0.13200482297973593,0.15886896432550945,0.17337465392964035,0.18790584721140413,0.2022137362460943,0.240421605576562,0.2857072762236872,0.33436909550198,0.3796035730971299,0.41970668018225843,0.46561507652690426,0.5164405080874335,0.5695018541800765,0.6225761465226669,0.6743698831644733,0.7217126433454055,0.7737444860004086,0.8184717554753183,0.8583203886885216,0.9085959015127933,0.9502972485511321,0.9490124679178746,0.9066654468131061,0.8569131750696455,0.8041005591474706,0.7558157785688377,0.7055998437496143,0.657140479447021,0.607040592627673,0.5574275150775383,0.5094043984720062,0.462277395000394,0.41325480097028366,0.3646361705670593,0.3118884649993092,0.2648989294717128,0.24679890238015556,HB
0.7768118366302086,0.7998430766853244,0.813356283873574,0.8186134505801947,0.8201122541000321,0.8288647450020539,0.8373462849152298,0.8539540679265398,0.8470981078546067,0.8444940532866643,0.8595153632400334,0.8564206882522349,0.8540715809523112,0.8456936082399573,0.8358572493528094,0.7937546532822704,0.7451678525506409,0.6936645795751148,0.6365941457149775,0.5869705791515334,0.5308151174634081,0.4727504457436107,0.4149229788654172,0.36384714706804133,0.3096965423783895,0.251793369242836,0.2000013602302353,0.14665226809639864,0.08892970354914387,0.040592639876402714,0.0225831874752338,0.05837290440461995,0.1082628260734837,0.16596069311080286,0.22402926101442522,0.2820978289180476,0.34016606622815093,0.3973873406816191,0.4469866434400098,0.5031921314928722,0.5612567675181652,0.6193253354217874,0.6773939033254099,0.7354624712290323,0.7935292140891583,0.8502781546770137,0.8981321865774665,0.9051895138789094,0.858412554117099,0.8155391064389828,0.7846633498887459,0.7603860300908991,0.7408044020797802,0.7198881681769216,0.6949837646332557,0.6623305150479264,0.6288363156666839,0.594441963529122,0.5635068440206028,0.551911172258523,0.5641057684427899,0.5970684612259278,0.6374936245323359,0.6736932867398377,0.7074268470287308,0.740705730563975,0.7611387182323648,0.762319766549796,0.7517015238965208,0.7409223785208283,0.740407150827407,0.7429935543131136,0.7470805329809911,0.7446412970151486,0.7624882627007428,0.7771598027498439,0.7839771428701705,0.7750661540522106,0.7504683427693495,0.6962688415775591,0.6467908071308961,0.5917907769997164,0.5421720313112137,0.48489900575338174,0.4274364317309154,0.37756518155563,0.3220697725360975,0.27427802524218614,0.23020221088811277,0.180656236622472,0.12703224962891335,0.09988691260525973,0.12666250414504598,0.1781783870252589,0.2300772045496413,0.2880187176393385,0.34608728554296064,0.4041535157085694,0.4607407066046214,0.5101524518269367,0.567178461238383,0.625246076789286,0.6826672454456604,0.7267595598474166,0.7771527244335739,0.8332070610662823,0.8828299909480644,0.9322809456260723,0.9114280374714048,0.858254434114005,0.8103726386354115,0.77553629436013,0.7485878604291332,0.7335494319071962,0.7121370257855755,0.6889108861065822,0.6637304604733769,0.6348248913699888,0.6048146791965068,0.5848097909774288,0.5880356093509937,0.6127594864427253,0.6469599764923721,0.6839250272927124,0.7185424362147024,0.7442161545004478,0.7570640851899384,0.7637805269519817,0.772978108527586,0.7825653145442699,0.7851247542675954,0.7850658240042994,0.7801810586538693,0.7830698942952234,0.802487338161588,0.8131931451968297,0.827658199302127,0.8259115701149959,0.7979255216775147,0.7447775292653611,0.6878591615304583,0.6384710786838734,0.5817805045991129,0.5237390474680947,0.4693754085140329,0.41850549456260433,0.36069433170602316,0.3041714379956515,0.25466312248672307,0.19767014191622656,0.1406718198716841,0.09145878198149227,0.04734335968445924,0.053920666809498474,0.10190542964275395,0.1597327953447043,0.21771952415839202,0.27036523356052755,0.32285004008373974,0.3808231660411996,0.4388917339448224,0.4969603018484454,0.5550288697520669,0.6130974376556899,0.6711658272440222,0.7286533143002785,0.7784875949419807,0.8341944628031679,0.8922563762558064,0.950306423251652,1.0000000000000002,0.9778623181836659,0.9283752853980414,0.877907036993482,0.8302277156911795,0.7969067629131925,0.7751262396795513,0.7584981406432623,0.7395376444767878,0.7135637356588616,0.6845647783450335,0.6555314559685161,0.6278801904050344,0.6179614918541729,0.6303630398780113,0.6614654627220204,0.6997134291242266,0.7402687704227042,0.7733939160840626,0.7983498136123848,0.8152523901345454,0.8128534545226453,0.805225516919617,0.796904031419835,0.7963157946077388,0.7954612821616165,0.7833295409095289,0.7778078699404918,0.7970246987566512,0.8091879482613622,0.8179126462591078,0.8153410782864086,0.7828399624084852,0.7327668606937141,0.6828800345634629,0.6285654757217514,0.5780747318556543,0.5203806688553021,0.4623121382201507,0.4042435703165279,0.3461750024129051,0.2881071844655472,0.23104921087084263,0.1816280006982376,0.1250821630776684,0.06710129503854212,0.016724957354199654,0.0,0.0334732517433618,0.08490370499665434,0.14284729788028372,0.20091570122928037,0.25842334203618034,0.3083216824702377,0.3639446402206923,0.42200623648040203,0.4800748043840224,0.538143372287645,0.5962119401912678,0.6542760815051192,0.7103748126872389,0.7600289574743677,0.8173026893060618,0.8753708787913859,0.9332797248818936,0.9694494188613516,0.9327889981646516,0.8843703036117117,0.8397095046940009,0.796228594675368,0.7655465184587553,0.741708684496454,0.7263834928760713,0.7025674558411414,0.675456461227961,0.6431091484486542,0.6136462972828569,0.585226206515276,0.565530721347212,0.5720408708453402,0.6017662637046961,0.6343151865861782,0.668008070203292,0.7092873635453654,0.7371355501390766,HB
0.1302976595519456,0.16844390887195848,0.20529345294298706,0.23381927500056943,0.2622891083672547,0.2899049690757711,0.31978004066443355,0.36669038559425093,0.42277807474983753,0.4794890185147547,0.5361254965064757,0.5931224287500094,0.6553576356179152,0.7127372615607501,0.7690860916973934,0.831304564953498,0.8893490266150246,0.9450275119690486,0.9967110791746601,0.9896674178702529,0.9387951931538789,0.8837436178083005,0.8216534618076987,0.7609411249309366,0.7071075075577582,0.6457286337154575,0.585888729217507,0.53162444858906,0.46979219113632587,0.4074524667778059,0.34957731508770484,0.29682808000464633,0.292703986070205,0.32353412358725087,0.33124910461839474,0.3156936451808272,0.28638960572970973,0.2636179160299965,0.23699324527957732,0.2143318790018507,0.2256472581069897,0.2255381326207624,0.2248126182202872,0.20892549662195026,0.17808258510590447,0.14003277107758616,0.09511011262767455,0.049773774216250954,0.004735109707811214,0.0,0.030088761580802093,0.06864715891785522,0.11318728828785352,0.15796692803107049,0.20163956836168628,0.23499262211703953,0.26041431955313965,0.28539390213231086,0.31316407419787207,0.3487423885271468,0.3981439554443753,0.4512311533099256,0.504564003196526,0.564931263970132,0.6192345416557115,0.6790200183491817,0.7413561376711342,0.7994005993326603,0.8551455633999048,0.9170403204451767,0.9680238426768311,0.9738913426785829,0.9282361050976822,0.8672680387883402,0.8187562058092688,0.7642370652952613,0.7022817233452043,0.6474474699815507,0.5883836390509569,0.52627382436033,0.47091881405180347,0.4124403649959594,0.35008168452988264,0.2880580857969046,0.24773038720277274,0.28281039475193936,0.3267870503449031,0.3504308841881678,0.34967494193708815,0.33312146121781727,0.30364717106632333,0.2859463105998221,0.25669078341087737,0.23821330767683757,0.24305064488267814,0.24079197164821964,0.2292406712808006,0.20928644396391594,0.17511640234120507,0.1321166169898913,0.08762321653938598,0.05869632660287194,0.07196156201681725,0.10690617152228454,0.15073394409321073,0.191627169406422,0.23000088729122092,0.2627039091491121,0.2872496281470278,0.3049109370916314,0.33345354443825936,0.3736931124957392,0.4204272354658638,0.47571631748822263,0.5316884276165523,0.5871672605468645,0.6453176311149145,0.707257669870335,0.7619371058554214,0.8212270778829804,0.8835981082459825,0.9446103955801379,0.9784440896023159,0.9494995045493035,0.8929560796500406,0.8377034958462555,0.7757925302645279,0.7201482105421824,0.661993890818608,0.6005798725604641,0.5467204804493186,0.48610322222596736,0.42371600711004653,0.36181646272866774,0.3091708087480953,0.2978563149214477,0.33582189214826474,0.35289878400982677,0.3420183502669458,0.3179486143480805,0.2855909991976511,0.2627157628904979,0.23731039444995705,0.2377852493659076,0.24260136172528957,0.23430302296983663,0.21536566025842996,0.1811415972285071,0.14345209084653354,0.10138046910823295,0.05837114724675074,0.03954976148065259,0.06847766478602058,0.10442045234880348,0.14493812357477687,0.18367425396439918,0.2207530961669646,0.25387363119975737,0.26838298797491933,0.2861648880962189,0.315164520429716,0.36210155779579134,0.4216692473218546,0.47546982662419923,0.5337032264508692,0.5883717699032998,0.6502169614005981,0.706603847388938,0.7639639083055698,0.8262574382718118,0.8850586868795496,0.939283171969099,0.9785627580428042,0.9562046678840317,0.9036151912704447,0.8441869887126359,0.7867241338249604,0.7396912988161537,0.690624377882358,0.6362038457369485,0.5771400702418985,0.514766626519688,0.45242668041898915,0.3945497132478146,0.338665318177541,0.28126932244043745,0.28475224477403027,0.31415177953267404,0.31392770383100155,0.3012830543848959,0.27048442352896385,0.2504697327460188,0.22469598592093987,0.20828480712482889,0.2242634081360737,0.22804574792221555,0.2189937749971813,0.19975005897607323,0.16959484579745832,0.128259437733379,0.08385563807919238,0.04483049335306766,0.04645798408455937,0.08131508122128128,0.12179581664966133,0.15974712635209798,0.1995093322093755,0.23808789412286524,0.2645303517439035,0.28264796173979523,0.303386852461879,0.3406846391174563,0.38690934099968466,0.4374407887339098,0.4957587884949155,0.5495383061505303,0.6104490378650764,0.6719358849535193,0.7258143914459101,0.7863781252269151,0.8473533530350474,0.9011194398502731,0.96064162812787,1.0,0.9818846076302683,0.9287164122046208,0.8666237097124654,0.8042330113769047,0.7419144371652044,0.6844817505139531,0.6281646864509427,0.565914069730848,0.5041904813437066,0.4500412063114405,0.3899774596067078,0.32759457770929146,0.26593784844313517,0.24211184952845932,0.284399674281516,0.32297952709176037,0.3321071118609764,0.3187501683374676,0.293793421799335,0.26658662214700857,0.24233517710395125,0.2166306914196512,0.2278758147341411,0.2405372725389654,0.23239639169524318,0.2191640922596234,0.1883053005646007,0.14969943995359514,0.11303062133536246,0.06994453203038731,0.0291321775953588,HB
0.4481599230678751,0.49047291508946234,0.5380423213588804,0.5872860509819519,0.637088099760499,0.6884792826471667,0.742563773957896,0.795963179109097,0.8458897908817179,0.8988116925561921,0.9485181303837779,0.9870173725293058,0.9705788895288415,0.9210778190467085,0.8670848681683573,0.8156815188118184,0.7643787472714739,0.7103019481052647,0.6561441253988388,0.6019902753965839,0.5487853405747299,0.4988243032081475,0.4452730232692369,0.3911231699342176,0.3381333189629835,0.28813418571286853,0.24193723592299066,0.250480493481396,0.26788743966770323,0.25175702912036735,0.24664919578527045,0.2564542560486288,0.24009449393745774,0.21164256210967758,0.17440919528422116,0.13074834716962624,0.0869777938213886,0.045226320747501325,0.01425005394687262,0.022124149961002315,0.06383521255095681,0.11030548583445765,0.1607979710806876,0.20686272584821297,0.2522942578955739,0.2952337618035785,0.3337333419515368,0.3640945873960916,0.38969523920193894,0.4245143545586897,0.46674166205298484,0.5058492385558858,0.552910844024569,0.6033379932011097,0.6572681423597041,0.7093721887824959,0.760005100972729,0.8120310557705405,0.8625822129730084,0.9146410487327444,0.9590812250620294,0.9572333888639907,0.9114351175039971,0.8577975714349703,0.8044650117886852,0.7545315921489492,0.7010815620685117,0.6469257725977452,0.5927708817161109,0.539437368757241,0.48950394911750494,0.4360539190370677,0.3819190451105924,0.3296234568791838,0.2795755209781582,0.24964717176718043,0.2711121448398026,0.26634737050824886,0.2492464646432726,0.2574054164229648,0.2553859283576533,0.23181609139206516,0.20010453267300365,0.15805948625047384,0.1155936941966299,0.07162875233568211,0.029208863036934374,0.010259160288099589,0.045664369505935665,0.09297884973690884,0.1399091112839408,0.18595449613793957,0.2316861751148409,0.2755066942842995,0.3160981842204347,0.3513510737548159,0.3787940782177167,0.4071674616047688,0.44854709283791905,0.49637519048025747,0.5475152669924342,0.5972942828406606,0.6472019102424765,0.6978251864411268,0.7494738577783945,0.80102822619171,0.852112018241343,0.9042112718212781,0.9532615484148564,0.9778840825234442,0.9443612165939973,0.8912736143950336,0.8397708513541334,0.7885668222786278,0.7345001242081358,0.6803423015017097,0.6262177629542637,0.5742081672766802,0.5234695491825593,0.46947245692422335,0.41532024882560725,0.3622588954947631,0.31225466027554816,0.25862097909099324,0.21072362656534604,0.2214993430700235,0.26111292658230834,0.266678309568394,0.24972833131785654,0.24931724996184157,0.2523431189239007,0.23371568884333094,0.20340981307850836,0.1636719346551052,0.1223200088349935,0.07872172353255369,0.035183227031414854,0.0,0.016967229510160053,0.05419035286734586,0.09964803033370695,0.14633610341495862,0.1929944875060563,0.23868035669313448,0.2818458345934086,0.32257816150015584,0.3588783066449538,0.3843988157268917,0.4151798424946914,0.45979604492928916,0.5079026123663145,0.5560753051030155,0.6052340060790257,0.6552766034843219,0.7067539431268127,0.7576698362917954,0.8107437693393308,0.8606838229323069,0.9125653760191336,0.9619033138512573,0.9944932056748413,0.9698335725039039,0.9177072035635209,0.863557063423447,0.8093992407170224,0.7552414180105961,0.70108359530417,0.6469257725977452,0.5928088438360809,0.5426689362350269,0.5001752590128722,0.447573632919248,0.39346260046977466,0.34165877546746704,0.2907578211460913,0.23882107156103283,0.21089846317414507,0.24358441831245703,0.2681106087849947,0.2552503563757357,0.2498287689024118,0.2626943462543794,0.24751466945200196,0.21950424590750273,0.18261611243930886,0.14144561799265765,0.0976833690209471,0.05481966404123895,0.014917124243083002,0.014579169301524475,0.055291987502732565,0.10165100484205625,0.1483100759131708,0.1947101777069794,0.24043357925264186,0.28501012196977893,0.32812468438824693,0.36437846969796384,0.3919973438456289,0.42288335269736665,0.4649906123992592,0.5112587189729539,0.5593829922209167,0.6079721909538408,0.6576715838911228,0.7088453230013586,0.7599414291079175,0.8125067279517034,0.8626895233195789,0.9141640964846881,0.9641077343944139,1.0,0.974505795539582,0.9211857245616647,0.8686107753890716,0.8183222773121878,0.7644595138244495,0.7103019481052647,0.6561445522226775,0.6023440422316461,0.5521700187867674,0.49942158579244234,0.4452787982176808,0.39214594252722723,0.3421639310549133,0.2889910945660178,0.23969783076276363,0.2184714595275682,0.25592479654510625,0.2783721741208287,0.26125940919698987,0.24946375200864535,0.2575267200514134,0.2427896561586108,0.21561411141749598,0.18040404366002938,0.1404398449847225,0.096966920770997,0.05409573465880535,0.011192630430590822,0.00653189016834077,0.04579746902529136,0.09163204498255761,0.13726754576509737,0.1746406855166378,0.20872700167993175,0.2270465421772686,0.24719870284079182,0.2894112866704657,0.3289566784331629,0.3606877693177938,0.3875012377365933,0.4235093626816945,0.4665911647512776,0.5099600162721544,HB
0.6083130862541866,0.613724709880267,0.6257405279461594,0.6204115846802296,0.615656781270328,0.6053499992080764,0.5966378975960556,0.5898038317916623,0.5991032462409195,0.6151888381163284,0.6395606905667872,0.6530520673458533,0.6511498518303134,0.6234517422678767,0.5794511030531301,0.5343005206796563,0.48928459842750616,0.447824683968587,0.4051275800126485,0.3600081185672802,0.31485516013577897,0.2699295565747629,0.228923610203578,0.18569902870471655,0.14056275802340268,0.0954217132449055,0.05199878872423186,0.012718563595020715,0.0,0.03277850256466752,0.07724551859321982,0.12239748989481314,0.16755044832631438,0.21258322061383128,0.25412628241704316,0.29672545479542933,0.34184285043869056,0.3869958088701918,0.4321487673016934,0.47730172573319474,0.522454684164696,0.5676069313275167,0.6121801697645926,0.6526505642058174,0.6967505007360424,0.7419000447085735,0.7870530031400749,0.8322059615715764,0.8773490456590636,0.918879301702032,0.91689238251025,0.8779118426474128,0.835267932912136,0.7901519694881349,0.7457001132387449,0.7066292661697975,0.6723648191068279,0.6482210424369044,0.6359357970716313,0.6231957751941941,0.6099224893946167,0.6094601785617197,0.6191363533764804,0.6133716857703624,0.6161761815837137,0.6338404777455648,0.6304612437299786,0.622312214337033,0.617623362901073,0.6256892086298349,0.6475978064747299,0.6694890667935072,0.672775235133765,0.6550807568602399,0.6132619024469708,0.5726047045503087,0.5289599472608304,0.4865626837947874,0.4448345524776641,0.39978336460600616,0.35479886931051297,0.3135327382016806,0.27062026720843035,0.22549096249363054,0.18034264493303953,0.1368415164968959,0.10197092404513503,0.06320364910054027,0.020656879438712417,0.007133144942138514,0.03826288639127262,0.0826234040627235,0.12777520228758832,0.17291181486392826,0.21615221364440274,0.25714668388314155,0.30206760439996405,0.3472205628314652,0.3923735212629672,0.43752647969446845,0.48267363916857053,0.5265395734527774,0.5671011798267961,0.6096310099823266,0.6455405593911663,0.6894881447013053,0.7346388938740898,0.7797859664777367,0.8236435118161021,0.8642172358710267,0.9089260415314786,0.9502144020313463,0.943119576633423,0.8994391514526245,0.8543166241858546,0.811545457228581,0.7701932488061594,0.7279997991840288,0.6921530546893544,0.6633169686037774,0.6459357507032566,0.6382047106888977,0.6258469161456086,0.6201192913661533,0.6293941210109268,0.6236531636720613,0.6140360430915814,0.6134064394810144,0.6022956836118948,0.5921751823376321,0.5888654985222711,0.5994259253183537,0.6196897229330676,0.6399783860131079,0.6477704109549947,0.6350576546693643,0.5939729028180825,0.5506302225412352,0.5097312672829062,0.4648886712389684,0.4225908606788973,0.3807584400561117,0.33569689341837594,0.2905439349868739,0.2455908666480381,0.2045073504065178,0.16138558123814128,0.1162515328744983,0.07112790409361025,0.029644842610122235,0.019013677979825727,0.05465626054328454,0.09500551393824241,0.13947351105527916,0.184625304725494,0.229778263156996,0.2749292038707768,0.31923216653569575,0.35748025010484885,0.3926521155734479,0.4365870133314764,0.4817377189051153,0.5268906773366172,0.5720436357681178,0.617075832568631,0.6586135454497326,0.7012184509807489,0.7463360378804933,0.7914889963119953,0.8366419547434973,0.8817928357338936,0.9259515313601279,0.9507736840345613,0.9201227372789074,0.8751037502899774,0.8299516514581644,0.7853985767197404,0.7450127624565679,0.7045308124946112,0.6697819895301256,0.6471422132119715,0.6361818400605614,0.627921635948057,0.623535904497361,0.6314011534175035,0.6374096819319199,0.6251001701763343,0.620510058929213,0.6081755794207588,0.6011743805161344,0.5987736701261698,0.6099571760709139,0.6324279829693926,0.6516859794740362,0.6591899277748017,0.6438485381538204,0.602136655703594,0.5571667904176777,0.5158847319102075,0.47298996231728496,0.42786149611687296,0.3829592782982789,0.34201071258932425,0.2987070446823986,0.2535690645259524,0.20841610609445038,0.16327764114072574,0.12003007984294667,0.07904086296378493,0.03451893881010937,0.005098986580931719,0.023667857237770096,0.06718552637114766,0.11206741498747186,0.15292972520677628,0.1963346704236808,0.24147540716339977,0.2866283655949017,0.33178132402640226,0.3769342824579043,0.42203041670311237,0.46421359462622114,0.5061519939989746,0.5512266845702799,0.5963796430017818,0.6415326014332825,0.6866855598647843,0.7318384325412204,0.7766819362144233,0.8174735311951742,0.860988450950813,0.906130920408662,0.951283070869984,0.9947762644872806,1.0,0.9595070528844882,0.9189253219596893,0.8742111970033337,0.8290586368071404,0.7839388504578275,0.7413050106305268,0.7028819518882996,0.670401178011742,0.6477643047187236,0.6388535537040667,0.6289831517975308,0.6184188423337451,0.6251111992721039,0.636029458597793,0.630110884417693,0.6267906675790857,0.6195842897731636,0.6079627058008839,0.5991034209203371,0.6020814254425847,HB
0.3503879591770815,0.3790344558004198,0.39786312201699053,0.41622984642141886,0.4451652741930375,0.48448611857486273,0.5292683116457373,0.5709498399051065,0.6131006669424934,0.6610492278758016,0.7080069458372786,0.7579540481828164,0.8059215911959947,0.8532307909852168,0.9032861395555281,0.952757513261115,0.9957828435536094,1.0,0.9555778688304983,0.9080155018024498,0.8603476380405479,0.8102460494886605,0.7600954869314125,0.7114359963750525,0.6647078770428021,0.6147899332351494,0.5646244590671345,0.5144588524448828,0.46429361995537083,0.4144698344048708,0.3679192874326634,0.3189944181231316,0.2688372620233565,0.2186716554011045,0.1685082932787469,0.1190623882838378,0.07570806062638774,0.07427954283577326,0.11850856953407168,0.167141059254501,0.21380226856617573,0.2633134535852654,0.30980257301336217,0.35756975174232125,0.40350810220610017,0.44433316212430946,0.4580527298825668,0.44014861067796646,0.4341450577857387,0.42047515062277147,0.38392454467315124,0.3415234800760884,0.32494573938125876,0.35613077375191565,0.39036295193557274,0.4104862735011477,0.40078148028256716,0.3655019898901379,0.33877762230718117,0.3356910614637931,0.323581708854123,0.29078892148458985,0.25144199792792293,0.2130032284928018,0.2092466291058232,0.24485037147404792,0.2833983173990567,0.32190790053971335,0.3564560315091628,0.3791321315618152,0.38106265765318964,0.39461375589114295,0.43059931891869,0.4739141686499197,0.5196550660095094,0.5670022112790842,0.6138774766495796,0.6615328116031576,0.708963725096412,0.759038029286204,0.8086834470848947,0.8550705132522858,0.9043336133097581,0.954287192708098,0.997874006032597,0.9995301395991878,0.9548414964886649,0.908364075059805,0.8593628994620117,0.8092050306774963,0.7593467503463434,0.7127406324109993,0.6639037316541414,0.6137487771514396,0.563583170529188,0.513417563906936,0.46325196994575096,0.4132261452618868,0.3661240003583857,0.31793053814303046,0.26779597348541023,0.21763036686315823,0.16746586646022138,0.11782498921061574,0.07143477841058571,0.022742339422236746,0.0,0.03870396327633546,0.07918361994278428,0.12424285241460825,0.1732304037023364,0.21969432712903764,0.26905334393761854,0.31552989940000814,0.36363703445561363,0.40961985778634574,0.45069078625881637,0.45956779693837985,0.4622513943672533,0.4723847989038426,0.45707151926916484,0.4248124165752541,0.38610834815571277,0.35916773401858887,0.383696052246217,0.41958190111814303,0.43468914766541306,0.4344903512671156,0.432355763715178,0.4127053341008305,0.4082470281853043,0.3947014947446614,0.3624939899928629,0.3205120850110064,0.2780388256697241,0.24932872628474895,0.2693156032131952,0.30887140913740735,0.3466846213405302,0.377264099130223,0.4039225924616267,0.4170431420839716,0.43673275251014515,0.4724526380037635,0.5175180725873665,0.5660515086468274,0.6161988678289607,0.6663495282943519,0.7149997532464205,0.7617309378112731,0.8116409088906409,0.8603297822465878,0.9070329859363548,0.9560548838799596,0.9864199272990972,0.9613092243855703,0.9153346931547466,0.865434186171318,0.8152706618284893,0.7657645234366317,0.7202905397193022,0.6782316300614146,0.6302121845059254,0.5800600303355201,0.5299287392207734,0.4817832890523695,0.43463660259966946,0.38460404653624586,0.3344384399139934,0.2842735715024594,0.23454785032457454,0.18810927191785226,0.1389766799347198,0.08881980293867536,0.04114537807369728,0.03584121102938481,0.08016374227403195,0.12729948831973087,0.17540264884607176,0.2255319092981644,0.27569438656197026,0.3250495443525973,0.3712112471994345,0.41526851014112726,0.4459142866243217,0.4639507369863543,0.46873566552515583,0.4543967122753258,0.4269682501572047,0.38904054195623955,0.3463618885758703,0.33138730350236717,0.3616305317445448,0.3892207433967662,0.4048628139789024,0.40392689863780523,0.40046239755923557,0.4047836606516672,0.37850483592809453,0.3371920633569882,0.29475025283851325,0.2555005082044994,0.2503698227040811,0.28620830240479983,0.32886950037752133,0.36952940845177434,0.401646779173156,0.4245134032961348,0.4280659226665548,0.4380064769249858,0.47710704896653716,0.5225947628742684,0.5688958144518113,0.6152341925412048,0.6638801199248756,0.7106472607862371,0.7592399050747849,0.8093678851270667,0.8578255374310124,0.9047091379486516,0.9543622097169577,0.990617585555416,0.9727253777541867,0.9277862390185327,0.8781143944523286,0.8285893139933893,0.7822352207166821,0.7328205019279579,0.6826575774567314,0.6324920039480393,0.5825111105089749,0.5355890485580117,0.4871789592368099,0.4370359870352059,0.38687038041295246,0.33670477379070113,0.2865460909274024,0.23749503127705146,0.19101528601093093,0.14124824951703258,0.0910883908807622,0.04432854834472372,0.04611682274629331,0.0929473966340833,0.1393018954356789,0.18868772118353377,0.23680034387643095,0.28393135267439723,0.33179677091647125,0.3782012197730656,0.4227721894811141,0.4492587175130081,0.4348585288726063,0.41584168625340007,0.40865307445173954,HB
0.4130346872409778,0.4276761058866201,0.4101041908059234,0.38548144045321797,0.3700535693914636,0.3742453100913731,0.39508967078544777,0.41388259191267673,0.4363099017586701,0.4632961687446223,0.48056660735340406,0.48404378747180266,0.4946384038097671,0.5155189028435526,0.5325446505965653,0.5583050396823498,0.5918247062937109,0.6178606387813542,0.6177880535994867,0.608566865766854,0.618240869630943,0.6309696936187418,0.6363461248515588,0.6307405638702476,0.6204750995487068,0.5918866286451535,0.5571844731199079,0.5226465976471638,0.48805684749261724,0.45329503155571704,0.43951511738525206,0.4679039347099856,0.5027897528595464,0.5418202394188514,0.5789443999890719,0.6150820310883646,0.6546339919716656,0.6942887540257966,0.7339434994807744,0.7734611658862985,0.8093897081057716,0.8467487003446338,0.8863778766366323,0.9260326386907635,0.9656744999190056,0.9999999999999999,0.9869035834259959,0.9503799158378495,0.9142768134780709,0.8752399451524026,0.8401952019371565,0.8024659847663319,0.7676188876097064,0.7338654866477053,0.708087083434619,0.6908284659396681,0.6961831285892442,0.6932681207082921,0.6725514435687429,0.64895595885375,0.6255554413359511,0.6017855057289704,0.5771099336297346,0.5577094455706758,0.5591107204875788,0.5808134176727208,0.6068569051960778,0.6330530180598964,0.6482031912876957,0.6424791595407163,0.6348452555658747,0.6277648960124341,0.6174985036349782,0.6111020948477873,0.5980700506381679,0.5864799620771614,0.5957790867215128,0.5970507949162606,0.6034993427211311,0.6029930909452849,0.5893394203850547,0.5576599741629252,0.5223692140582876,0.4874556289270241,0.4534111253773577,0.4219938799029642,0.4175824793949072,0.445736398953714,0.4828158133188607,0.5179179463267816,0.557134594952935,0.5967861112606027,0.635433710953551,0.6704503179560378,0.7095692506928294,0.7492233326512442,0.7888780947053747,0.8284833486687057,0.8653116039048675,0.8984176071734579,0.8921049320208042,0.8536349274475331,0.8139806505011088,0.7743438720198251,0.7374752466779654,0.7104033172282721,0.6767458512915482,0.6440832985321042,0.6174097018632351,0.6002020279948089,0.5893904882114519,0.5799268026329479,0.5671992924130077,0.5490725414247474,0.527950331196584,0.517968456262611,0.5161789930627648,0.5210433385857512,0.5478825136644006,0.5772629932106849,0.6101916330726863,0.6425743864635111,0.647609536136415,0.614350844788761,0.5831788037234306,0.5457393394616777,0.5110738601961456,0.4882042734608316,0.5118863601646365,0.5477518689439723,0.5839962908945363,0.6183566691547838,0.6493051471075527,0.6612059698146481,0.6536540613440941,0.62459438950504,0.5851471932551938,0.5454924450336905,0.5058376829795591,0.4661830979830608,0.4268849813180092,0.3916577612857668,0.3533971000800016,0.31374856036872356,0.2740937983145928,0.23443903626046136,0.1947842742063307,0.15512951215220006,0.11547487182519112,0.07615694357418279,0.04566021719704694,0.016160324776841373,0.0,0.025325453220057303,0.06454219418521145,0.10419679024781237,0.14384969715926832,0.18262177981371064,0.2176201222265024,0.2566320276890257,0.2962859128586486,0.3359406749127787,0.375591353766095,0.41411468717316635,0.44919144211337436,0.4883755187764077,0.5279600962972503,0.5644376892160105,0.5995592325463938,0.6260046495933554,0.6444890244170806,0.6296865622893107,0.5980836782902289,0.5605602263451704,0.5251983985217238,0.48582826164824966,0.44617363732013293,0.4065188752660015,0.3668641132118715,0.3272349369198725,0.28987594468100997,0.25394740246153735,0.2144297360560129,0.17477968650218478,0.13642009034923197,0.10126047543824523,0.06336935202676264,0.03883998689722673,0.0497644225362065,0.08561122016145373,0.11994094719422899,0.14715879408278243,0.1749710132723351,0.20196432928866626,0.23080098110252423,0.21272924648783242,0.1790582097864133,0.15553475789376014,0.17307809237938931,0.21008668544648856,0.2489911791053614,0.28396669078103187,0.32284503535722175,0.3622819686013793,0.3978557036990773,0.4356361748798715,0.47527804983692645,0.5149309567483833,0.5537030394028262,0.5887013818156165,0.6277132872781405,0.6673671724477636,0.7070219345018934,0.746663114502007,0.7845012859690187,0.8172297389903592,0.8129013797678332,0.7772080744940394,0.7411074541730504,0.7025034512714744,0.6674998736844909,0.6289058874911898,0.5961857903709199,0.5694348328185367,0.5366456662016651,0.5182388399806906,0.5147798598401456,0.5142435010648087,0.5027432977113314,0.48180167680301456,0.45976838372962836,0.4451270813030108,0.4547539176416088,0.4754041099686549,0.49881206581853943,0.5252915449821794,0.5485768136483198,0.5552127556499886,0.5565728499086566,0.5671335753814778,0.5641721289043858,0.5459402181489272,0.5291738605439373,0.5137197480534577,0.5072540256269661,0.519395634731521,0.5308850168948407,0.5373214255950004,0.5444718971317055,0.5356960337586318,0.5048248822263866,0.46984678199405927,0.4357693966579046,0.4008623830180411,0.3681712623326113,HB
1.0,0.966556397688115,0.9273112677124152,0.8905408800032067,0.8536183158786886,0.8147814620605373,0.7792869075051031,0.7406391333769228,0.7011897123796883,0.6617957371719932,0.6249359270532496,0.5880997414582735,0.5487091076649627,0.5092759569706914,0.47158336782288857,0.43551083639991905,0.39652837743012803,0.3720894115902722,0.37024442048484085,0.36380288458584886,0.34533375784469567,0.3393508248493583,0.34479306947497534,0.33503346565129377,0.31649684614323315,0.29855840563382197,0.29856483461906214,0.29393192661228773,0.27049015536146004,0.24115017126377503,0.2115616497695152,0.18190355515272205,0.15080993313925828,0.11738938209813055,0.08530273316126669,0.05603140195402556,0.05181598944710997,0.07940703737975441,0.112398895650343,0.14420625541114407,0.178444415677797,0.2102679746585404,0.23841777952213705,0.26655122609215776,0.2909210023423666,0.3081728967111853,0.32658174730673817,0.35714242241151595,0.39033050733860863,0.4266005461059369,0.46222262086156773,0.5012225281872483,0.537648404124126,0.5749315847818833,0.6143410932597478,0.6524018462208067,0.6881870653516532,0.7273795466177574,0.7668145767928055,0.8045281640350003,0.8405848889683828,0.8798599938325481,0.9191614214277491,0.954515410497616,0.9671000256489785,0.9387047259596247,0.9000745736921655,0.8608282022667372,0.8248700396746588,0.7871202753427352,0.7505543884139253,0.7134302178087631,0.6740651401598766,0.6370157726068061,0.6003633443465562,0.5609894248231951,0.521537868765375,0.48219196926954744,0.44576509624295657,0.40847585387969554,0.36906438674999464,0.3333230421701193,0.3374119703175422,0.35849564703131,0.3581613760256719,0.3451605835758321,0.32985515711348457,0.33699915090517185,0.3446378765591882,0.33383107294965286,0.31905610362150405,0.303060789322541,0.2965714850200478,0.29448892001336124,0.27189681983373626,0.2425796096215399,0.21188211974839666,0.1808353055275026,0.1487724757521378,0.1166661461371773,0.08507235566223914,0.051662359459916596,0.020011810634096183,0.012677305730777855,0.03979252757243146,0.07161980781150723,0.10443892084065809,0.1382227268369366,0.1711843033507212,0.20271038813781117,0.23595501515103268,0.2650450078836498,0.2894405567163212,0.30938366797477723,0.327811186127561,0.35371119415594987,0.3869660176203358,0.42230341476475985,0.45965958698811094,0.4951446219961434,0.5340063165143537,0.5715483597063081,0.6077434510034446,0.6470560916765188,0.6865019552996469,0.7247946351718207,0.760438864013736,0.7995369698081384,0.8389881796583053,0.878256276609439,0.9140428602094776,0.9380831421605623,0.9161469910177061,0.8804555795170735,0.8485939051289376,0.8135231101909676,0.7747717637604775,0.7383801176157591,0.7010720524975577,0.6634000734291704,0.627336528028413,0.5880562053527106,0.5486352655317642,0.5113142968974925,0.4749216238224513,0.4355815221763456,0.397280360251422,0.3649616761420639,0.3631006864690871,0.36730671497746603,0.3615736946062367,0.343346739150313,0.3368443272092113,0.3493951522814315,0.353344029503191,0.3419804124664956,0.32697086528738983,0.31098089363792725,0.3015364182054536,0.3009732988818825,0.2810219541773967,0.25400839253343477,0.2293981206036122,0.19988610480535673,0.1685667214770341,0.1358073052380766,0.10356716090937901,0.07140970758787535,0.036202357866250146,0.007141148327122759,0.00521388600907402,0.03463058289666987,0.06681197664097038,0.09966612555723142,0.1325406810236489,0.1657044996532826,0.20121743592446006,0.2320420449180014,0.2605661569273299,0.28755097505302807,0.31094500023075056,0.32842152638178224,0.3514377172598081,0.38322941074047046,0.4181127190537486,0.45486646086436033,0.49111005162057164,0.5295799135144635,0.5650834643859787,0.6040132017681429,0.6434633710220096,0.6825039634753657,0.7180742586444692,0.7564970732163173,0.7959444724934691,0.8353905496218307,0.8737055627488161,0.9093314751127274,0.9464640453486434,0.9554700228581167,0.9232198318912176,0.8863687016562888,0.8495939376265093,0.8103423762144356,0.7741262166002675,0.7367288242848352,0.7004354727591001,0.6630262442280584,0.6236026598525907,0.584512212140691,0.5488787245963066,0.510567772061106,0.47114273623557235,0.4335436509129139,0.39743635544094813,0.3655265290335098,0.3669779534697778,0.3652635705084042,0.3498332973263619,0.3325542326527102,0.3373547387598336,0.3489983078779543,0.3405098906840818,0.3254015810275742,0.30850019287531527,0.2973752271288198,0.2984152695998904,0.2852117866442575,0.26101710192749317,0.25561685190377337,0.2559541738622536,0.24898196529566086,0.24332226185032568,0.21913753624020682,0.2227879683929379,0.21532172093520074,0.18681673765363283,0.17221592853969325,0.16575201580794163,0.15023949745314713,0.12014741956636388,0.08822475984145473,0.05430544688434702,0.020130920633912086,0.0,0.01832848560380873,0.049853787705887886,0.08270812729241306,0.11558091727702313,0.14844036907225266,0.1807726866860504,0.2150303288459805,0.2366481227550702,0.2508136387997445,0.2680753743136082,HB
0.15389628747386586,0.1796904812151079,0.20100891442398705,0.22103341985351022,0.24908527761074017,0.2927857003269867,0.3462833106452503,0.4024087906649887,0.45719749050603387,0.5161750972146897,0.5733596169196136,0.6295884298619836,0.6898082170909514,0.7489305773292292,0.8037816350270779,0.8634016793707537,0.922903509745989,0.9765060314116665,0.9999999999999998,0.9538886721209354,0.8975719210370372,0.8406155108284945,0.7803248984163911,0.7199638053558721,0.6596043082446919,0.6000482906286799,0.5452411495808516,0.4860098094037424,0.42565204926965206,0.3652909562091331,0.30492986314861437,0.2445687700880954,0.18421332569607562,0.12755657570951562,0.12319285032871541,0.15603963684128463,0.16921422465403935,0.16040340721559287,0.1622352241824636,0.17701587919506068,0.16742533076985744,0.17850065708214413,0.1998498247353342,0.22460219288211203,0.2591792291402679,0.3070031753452698,0.360385103490386,0.41921865031698524,0.47487004709478176,0.532706405118841,0.5922376467657346,0.6470678909957848,0.7062590264567974,0.7646572784485803,0.8198856130012517,0.8783744090738443,0.9223534617559324,0.9044403457708798,0.8479130376461881,0.7878334561205971,0.7322095732625302,0.6743288029602803,0.6139939409078532,0.5536328478473342,0.49327175478681573,0.4329259396102483,0.3745928850952034,0.3193188823191426,0.25932090142003084,0.19896338234771327,0.1401249090282175,0.09299419533761455,0.08519220900827751,0.13144418892568122,0.16111273490421096,0.17641063210613983,0.1686735872532641,0.16302326701963588,0.14614407158995735,0.11847037689434692,0.11555199307919972,0.13602180412290887,0.16502660375107303,0.18558244940527935,0.20240886047285755,0.22954208946515942,0.27770403401637545,0.3317222641116866,0.3894399534491586,0.44463024749647206,0.5032152391418871,0.5581169377320401,0.6176428979587016,0.6736543745787364,0.7310844987630587,0.7904033828128736,0.8444244596458217,0.873842316420907,0.8325317339666041,0.7779156332889541,0.7182582845737879,0.6579750607414754,0.60113692859647,0.5445702456689634,0.4843086908221328,0.4239475977616143,0.3635865047010949,0.303273345199395,0.24591108242575377,0.1898342218865876,0.12963634229765808,0.07080559829713118,0.05583415551513271,0.10439745251867727,0.14950794820050883,0.15736834746391515,0.15252475735995152,0.16123290457846107,0.16124353083742182,0.1473432294043726,0.12450550593668375,0.12687025663368412,0.14616473556261655,0.16738931016587544,0.1829068611449236,0.20076965504619082,0.2315546345819226,0.2787267309607273,0.3330881878865275,0.3887366547971671,0.44615062220424573,0.5061169118754634,0.5614324122270486,0.619711497476954,0.6796762994219232,0.73490006829077,0.7932891104786772,0.8519412478534398,0.9057417687235774,0.9327366942481377,0.8889592357108651,0.8297521054518615,0.7749444782965722,0.7155532454618567,0.6551946480504269,0.5948335549899084,0.5344724619293899,0.47413605022186944,0.4161651393660417,0.3606115739759148,0.300521737812784,0.24016070584316984,0.1798027338988326,0.12233346757163988,0.11440533251363116,0.14498338031465718,0.14347550127633601,0.1163496934633601,0.08373542330013284,0.07516010537333018,0.10387639617968336,0.13372135106790828,0.1547061622023187,0.16629034931955577,0.19313640202291804,0.2331835149265531,0.2831871731922686,0.33687532131126274,0.3943302867988365,0.4530969319243485,0.5080744695742543,0.5678830456854371,0.6271512238267556,0.681945877697401,0.7414518794255476,0.7993640211433892,0.8549476488454877,0.9126818974088244,0.9424723415652543,0.9080958926925011,0.850190321502579,0.7898463171854304,0.7294852241249123,0.6691241310643941,0.6087630380038755,0.5484019449433555,0.48804085188283675,0.42767975882231846,0.3673186657617997,0.3069575727012812,0.24674016340179095,0.19057984119740645,0.13434508257748856,0.11200557568359071,0.1419112178826365,0.15874224019652172,0.15479126497304874,0.1325011479836311,0.12071351277776676,0.13609678406764614,0.1586032717241539,0.17806081452603317,0.1960547933792991,0.22800328320568464,0.2720020416597606,0.3257176285441965,0.38049261495704,0.4380272758010719,0.49347666844178995,0.5535220709253383,0.6114959542494816,0.6670394656233241,0.7271228015993076,0.7852076379644977,0.8312549323374869,0.8855328575264116,0.9394336427378644,0.9613306127800241,0.9168180874096097,0.8597672032261696,0.803623214665417,0.743414707138879,0.683053614078359,0.6226925210178405,0.5623603702572317,0.5045535557469865,0.4488733135473615,0.38874185546772155,0.3283807649316204,0.26802033820218507,0.20846001124748081,0.15821785307068192,0.10248128089189268,0.047619072188896716,0.0,0.024924236414806566,0.07884311700066227,0.1271441937551634,0.15525276505412644,0.17346400881128976,0.17005224833354937,0.15293578368707061,0.14831808959598036,0.17194038129569122,0.19433313965521837,0.21442377528121992,0.2343619616646646,0.24999322370919042,0.28689468553338204,0.3372800460216927,0.3913155822692227,0.4496457633500277,0.5045103528612565,0.5641448556404836,0.6196586746366017,HB
0.19626296294383416,0.19648405840975225,0.17727103898514462,0.14835050068051525,0.11149386980441234,0.06223274817370794,0.026178774174340003,0.009815422612188707,0.03743369905449834,0.07958274932391851,0.1226231119145309,0.1558732253444719,0.1870619062295975,0.21144457139509476,0.24879885411246128,0.29342334596294584,0.33454575327567815,0.381895597008185,0.4370248946952149,0.4930518561041186,0.5488255749607607,0.6046588476288726,0.6619431030046667,0.7163896389858573,0.7760879370950267,0.8298466698848588,0.8862271526834189,0.9194129268941411,0.8873817383809015,0.8276439728987015,0.7673539560983709,0.7124778850523181,0.6555884978719586,0.5951743208661364,0.5380351667444736,0.4833822168654056,0.42312911587123025,0.363029425596505,0.3089697503873272,0.2524027881934099,0.19913633156946275,0.1476311840393092,0.1506532600014907,0.19264898297148858,0.21878297944401415,0.23275093762998478,0.24424497135912637,0.23255079278727453,0.24369346273817016,0.2620151274727909,0.2779333326473381,0.28242388012395914,0.275788024132241,0.24928414008099042,0.21474834724999647,0.17456011633863366,0.1342346099880214,0.09383475657248375,0.059120946203632174,0.07524706351470245,0.11160120805437823,0.14936411935197147,0.18627606288684606,0.2151965266793141,0.23675791062433227,0.2689994456802476,0.31202276858167344,0.36344517257822684,0.42312985531416025,0.483522639673039,0.5393742862381803,0.5952075589062922,0.6524918142820861,0.7069383502632769,0.7666366483724454,0.8204001305979942,0.8786168328409556,0.9336241087150763,0.9570946509686051,0.9206420765939998,0.8616680994428128,0.8023213987101954,0.7489801598289596,0.6896539328517479,0.6298599907316829,0.5763188376615924,0.5176362045792275,0.4571604145757593,0.39845817823789176,0.3449401081936865,0.28558707466116573,0.23178552824929466,0.1896878257412904,0.2177559242666125,0.25998220762398616,0.2746843242394037,0.2848303575043245,0.2982103073604905,0.27921236971819163,0.2723434317348248,0.2685524918530309,0.2573411544832156,0.254854053152209,0.23824399582117373,0.20489672635210598,0.16307349816750083,0.11878072722432553,0.07684242423551924,0.03853058816015453,0.011966929584497521,0.03521628954647471,0.07512960885490072,0.11165794778473348,0.14451377584093827,0.1724072712238125,0.201128537471436,0.2322553818306512,0.2785146295019285,0.3305993863109882,0.3873014059331492,0.4408294668443542,0.49897071485608824,0.5468074151295901,0.5939722324606798,0.6495609046623436,0.7049175059530335,0.7651918986191844,0.8212982901138266,0.8766555229867092,0.9183985566780482,0.8907309976162245,0.8382122608506151,0.7784965458997688,0.7180410742596839,0.6609019201380217,0.6062489702589542,0.545995869264779,0.48589617899005355,0.4318338352279816,0.37396569683403413,0.3134940887203388,0.25327674170068337,0.19883225169899332,0.14388519740255235,0.1342227489964054,0.18136659152680723,0.2237624974044392,0.23431192416343727,0.23297018167887917,0.24013561961338237,0.21759854076536045,0.215735088703497,0.2106353586381593,0.21412964746107632,0.24267971015503953,0.27555147235109345,0.2698798350398224,0.23798505910464196,0.19805335262296242,0.15186480248627166,0.10441990095097697,0.06217829982128409,0.02966081120152375,0.03977243803158581,0.08109629492635184,0.12628948168545895,0.16445956679691442,0.19803558197337767,0.22616525924544417,0.25166563015441046,0.28931385801669296,0.33886230333135137,0.39118864648813667,0.4440174665470924,0.5020088582286624,0.5557640463657354,0.6140545188057682,0.6739293425706376,0.7275555122992132,0.7860639144590216,0.8452441354761773,0.8985887179846876,0.956847814666977,0.9999999999999998,0.9847677739491638,0.927816457792235,0.8673432315031955,0.8083181403708182,0.754929271708719,0.6953249565713342,0.6348378566533883,0.5743900833137303,0.5175068228632513,0.4626343351832529,0.40233747075105963,0.34275021991995946,0.28937005531190474,0.23112939182381043,0.18339229968336745,0.19172670644242462,0.2397698536687256,0.2793843971710359,0.28830720777116103,0.29062355307807186,0.2952605096280343,0.2727768532965398,0.2757167746493274,0.2761898692063305,0.2589777831253912,0.2546746799849513,0.25432428452909983,0.23581415447123577,0.1999818112581675,0.15703370194680688,0.11034541364690043,0.06489501358377026,0.024469820843188828,0.0,0.02149458572850893,0.06264843100268891,0.10737518505056443,0.14394522711449942,0.17415278791157096,0.20138188612467367,0.23712528461906368,0.2776804389055818,0.32682973963592343,0.3805490194280805,0.43366205476378483,0.4888907449480453,0.544245597669162,0.6045199903353142,0.6606263818299551,0.7162300801319776,0.7763721672654083,0.8310251171444747,0.8879741767557181,0.9423497838417723,0.975807500860258,0.9405139726372671,0.880579622789895,0.8220683995250175,0.7684422297964446,0.7085575064921221,0.6480696608649998,0.587581882397227,0.5276813693504463,0.474044956718632,0.4155603311471696,0.35509745471258913,0.2972427130020061,0.24318829506360418,0.18453614116185313,0.1343984334678927,0.13184326170441896,HB
0.019844042061769374,0.013347519493958071,0.021808340441470397,0.03464430839587851,0.05203205593828608,0.07003192144774606,0.08869904478110557,0.11830692309245605,0.1585474400813205,0.20107895636516426,0.24742303380366493,0.2912666297608715,0.34114103853407785,0.3920225646323021,0.44290528154088094,0.49378799844945953,0.5443479449740152,0.5890101567931971,0.6373212512302904,0.6881647890332476,0.7359528888583129,0.7810494109491266,0.8316906518013027,0.8798563928145007,0.9226643365338973,0.9363782161637433,0.9022518913826372,0.8533620906912129,0.8024860297435183,0.7516033128349395,0.70072065956214,0.6501369005475719,0.6054431550928174,0.5571897218796464,0.5063206873431982,0.45543797043461964,0.40455525352604105,0.35367253661746223,0.30279145376847083,0.25306785395464826,0.20917045695983227,0.15927137604489383,0.10840994756131739,0.0641896117805596,0.07815989692019887,0.10345994708177608,0.11204087207867719,0.10430137482081547,0.08936582542232108,0.07448170619062422,0.0618160017188778,0.06507328220391728,0.07149087116569008,0.08559763844881174,0.09817868315788725,0.10396371588325759,0.10041069736953423,0.08179914833654789,0.05908281899579859,0.03941379695233893,0.021619196212737446,0.009034577980766567,0.01370259209016833,0.026076805825279603,0.04188088713791749,0.06237731721878759,0.08096053196862063,0.09924749026631208,0.13703052912978353,0.17800213721229108,0.22369549533067246,0.26761106036392657,0.31693567383870036,0.3642443491816889,0.4097671146742712,0.4604609962165489,0.5081655138612049,0.5533367119107517,0.6040040528992598,0.6545424600758696,0.6991443907464272,0.7475357505191225,0.7984038245037102,0.8488538490452839,0.8932077479728724,0.9413741428589573,0.9742059274783239,0.9569750640058721,0.9088270826705309,0.8579549105949984,0.8083814164733307,0.7644543423630084,0.7144342732039455,0.6635522214357876,0.6126695045272088,0.5617867876186302,0.5109068962475296,0.4613392886235945,0.4174110507048201,0.36738623690873196,0.31650416212688914,0.2656214452183101,0.21473872830973195,0.1638560114011527,0.11298418445523328,0.06830794328956591,0.07884745087543621,0.10758171512270187,0.12059524246661546,0.11344208626970143,0.0982734173214006,0.0838516358275434,0.06968079530945581,0.06424516356817733,0.06469813874203556,0.07149136871501272,0.08446618360205371,0.09465953406383742,0.09970016566243056,0.08895578707396745,0.0716771565519192,0.053031010905120635,0.047575445555023466,0.03582651187670893,0.024851008288770515,0.040771714054732566,0.05762482807713987,0.06958472962717144,0.08424374740594098,0.10687084850954887,0.14269351218368453,0.18342845758231752,0.22855761463552215,0.2727404170015586,0.32152073017102056,0.3707178455616389,0.4147840461209873,0.46503490980936046,0.5156398319013942,0.5604704632507793,0.6085709493184934,0.659417726157276,0.7074042527678728,0.7518929753525962,0.7916645868944601,0.8355636225117213,0.8816017287300193,0.9282723407129141,0.9776566877397204,1.0,0.967688218185959,0.9173221887566072,0.8673709407607668,0.8234732845326644,0.7738019380018293,0.7229213591095554,0.672038642200977,0.6211559252923982,0.5702732083838185,0.5193937216655877,0.4698790925212357,0.4259403803264008,0.3758727713001144,0.3249905828920774,0.2741078659834997,0.22330708462298032,0.17694519877531834,0.13051865439377042,0.08014758176985404,0.05665809317491166,0.09060842354086307,0.11185706210434976,0.11934631103413129,0.11641144343042886,0.10147426742374188,0.09029539639555062,0.07020041002828736,0.06761319913677921,0.06732337073275874,0.06604977312636717,0.07877457483121564,0.09319177627054742,0.10253975448508346,0.09516892738160254,0.07587362288370558,0.05320998883637906,0.039189123103324564,0.02619642776644371,0.007189233292680175,0.0,0.012417461096645654,0.02538628656655728,0.04135822628265684,0.059988032089570265,0.09638189887738013,0.13956864395253943,0.18331394171031956,0.23080997639282952,0.2772373820157321,0.3235698430670564,0.37394014397068776,0.4183042989994512,0.46701226092924353,0.5178482125693467,0.5651551215714934,0.6106832936271505,0.6614037604825751,0.7121249408031916,0.7575696387964337,0.8049535586535326,0.8557936950773204,0.9043761366044829,0.9404175479603927,0.9360280130766201,0.8971011071956987,0.8475297377495514,0.7966493774872907,0.7457853870149487,0.6976449558836046,0.6528464979695805,0.6022494689041289,0.5513667519955507,0.5004840350869726,0.44960131817839266,0.3987186012698143,0.34783588436123614,0.2969531674526582,0.24607045054407828,0.1951877336354999,0.14430501672692175,0.09343128300082171,0.0478765327265509,0.056485987474429455,0.08760868261969867,0.099949297218769,0.09665983096173947,0.08750973672600004,0.07959431945150275,0.05760381378997681,0.0579095076558247,0.06154025322271295,0.06939893833797073,0.0844238558194117,0.09385520866065677,0.09496622565472923,0.09036697035380148,0.07163371611306202,0.04613498746574396,0.02678250024734985,0.02687346386070466,0.02219786835174875,0.028147330998625764,0.045302223143950604,0.06324981938855645,0.07608197604395239,HB
0.2604231685297562,0.2669027002720097,0.2683657018310939,0.28640122226479914,0.317218254915014,0.3484633310359748,0.38168039672709453,0.41309427439391566,0.4504755030412295,0.4769876438315821,0.4738930674511459,0.4509731302319442,0.417018926311568,0.38261222387649996,0.3482182239442624,0.31075673638025814,0.27108372303566286,0.24102927946030483,0.21948655344647916,0.21718226772228766,0.22754020427826616,0.24392948907511824,0.25746702688679024,0.2666055452973004,0.27099223103717085,0.29427927424576517,0.3234021266782139,0.3328360279111404,0.36203839602369037,0.4048721622862841,0.45624068726866307,0.5033606766987377,0.546224080463348,0.5878087634385514,0.6363852583780512,0.6781135705888612,0.7276857094912983,0.7789690804686407,0.816575640079912,0.8571130732811745,0.9026565429831535,0.947538188135129,0.9909939015017346,1.0,0.967280783712773,0.9213369501313924,0.8774524741456822,0.826836131042354,0.7853694159257167,0.7409705594896523,0.6965696953442322,0.647959029949631,0.6057465358980738,0.5545785430982626,0.5043221655213745,0.4627720474528769,0.41249534627768636,0.3615877810437489,0.3379294504799879,0.33927238739062515,0.32912182607541896,0.31680454914263834,0.29336854091827025,0.2650072941689543,0.2537205091154373,0.2411869405886704,0.2212370299563884,0.2201024817380648,0.22857378988547605,0.22854421767928423,0.21717081195747134,0.2008110433048862,0.18755360464566007,0.1689937061102902,0.1587879104754304,0.15243485708467874,0.1524124652645784,0.15750698630265347,0.16207869488303217,0.17734662386376066,0.19644946485192794,0.2221424731149697,0.2482685038322141,0.2792186123624365,0.3122324401349039,0.3301276176852981,0.3197869837522722,0.2910235762654798,0.2567110004794939,0.22233438953892826,0.18606304163581244,0.14920235373211277,0.10968728186715682,0.07322512424613392,0.046025954421563986,0.02078814524455419,0.028697614305117414,0.04074459190399238,0.05906146593888906,0.07221488559110267,0.08207321242786891,0.08864255126573961,0.09512712151210234,0.09581276464893418,0.07029382270323392,0.03218118817006377,0.0,0.030857189720879363,0.07399196925175588,0.12345119594201925,0.1650522146858071,0.21586043797266807,0.26726877133635973,0.3108985923928933,0.357968479846992,0.40954841958730537,0.46115531423023626,0.5127622088731667,0.5640383082404634,0.6037646795759879,0.6425793803363198,0.693635709364246,0.7387651958086661,0.7842600417339067,0.8341435245596864,0.8623311079571145,0.8485538978040643,0.8020754229582683,0.7601664575438507,0.7091051708348264,0.6633013968670523,0.6185648010046356,0.5731535251975188,0.5280255447458058,0.477974946999824,0.4363902299632416,0.3860196898536876,0.3361484200105602,0.29449639839072983,0.24456504611357577,0.2025449574552094,0.16099575173142622,0.15239883581381886,0.15011263262431074,0.1379770113066856,0.1314738096531869,0.14346826342222663,0.14930388366103298,0.13195789565049232,0.1394695243695554,0.16159574060547088,0.17707216645969037,0.17743812847331641,0.16837966022845663,0.1580640379610445,0.1428218997344044,0.14252953076209662,0.15188955998597065,0.15838836513092858,0.16506702684210994,0.1718444263161345,0.1911187408568349,0.2165971106493605,0.24240048848860418,0.2681915273738351,0.28946012825378276,0.28623136142354744,0.25963806833656333,0.2221816489566577,0.18609924956024937,0.15498125573699895,0.1150212144564775,0.0806388495328525,0.05204799351162914,0.016375405238009177,0.00576473440318237,0.02117815568125425,0.03504775378675329,0.05012032444037917,0.0617165662461312,0.06318616035340896,0.0631842214628433,0.06077208931313782,0.041268215005450415,0.04874036400604509,0.09821015705619573,0.1425240295167769,0.18880011875583058,0.23587152563016955,0.27874197680129553,0.32032588585351895,0.36969794774416576,0.41616703128992993,0.4593577352314884,0.49538654553086037,0.5324181579362319,0.5769348619145638,0.6284156078067431,0.6800134814691092,0.7282537292708344,0.7653622446594355,0.7655295876286354,0.7251604559137141,0.6760725956687881,0.6342637614679454,0.5857680033440049,0.5438930082216946,0.4955536863230199,0.45345461614059657,0.4026452577863995,0.3598332751595792,0.3118338736077737,0.26371581091137797,0.22102007169005145,0.17355007302642678,0.13718678346250757,0.13582923582873585,0.13960260757178355,0.13751708393350093,0.12162259491828875,0.13254665195975246,0.14836612810818517,0.1368900620805884,0.13454160576730523,0.154237193885721,0.18657657973559427,0.2073848546227972,0.21585751066541947,0.21608710294193,0.22087067114479364,0.23097374712657404,0.24332608535674272,0.2564648817897912,0.27591620977809805,0.2935245934466497,0.3076551539547254,0.3209402898133207,0.3467568162242505,0.37735260200177434,0.40713458807599645,0.432593359122031,0.4448216489797212,0.4346804916952687,0.4060276324620191,0.366493761258484,0.3240695292845923,0.2860813446756949,0.24972139862142528,0.2129331465006854,0.17852797842682167,0.14651355761241813,0.12213833251810735,0.12552875151364118,0.1485847927288506,0.16329616104575084,HB
1.0,0.989183381733308,0.9776848076081868,0.9661862334830655,0.9546876593579443,0.9432030458191927,0.9341593538121153,0.9247837117662892,0.9132964027348629,0.9017978286097417,0.8902992544846204,0.8788006803594992,0.867302106234378,0.8558035321092567,0.8443049579841355,0.8328063838590143,0.8213078097338931,0.8098092356087718,0.798351036362638,0.7901232671578553,0.7799121782046134,0.7684179789856906,0.7569194048605694,0.7454208307354482,0.733922256610327,0.7224236824852057,0.7109251083600845,0.6994265342349633,0.687927960109842,0.6764293859847208,0.6649308118595996,0.6534322377344783,0.6419336636093571,0.6304350894842359,0.6189365153591146,0.6074379412339934,0.5959393671088722,0.584440792983751,0.5729422188586301,0.5614436447335087,0.5499450706083874,0.5384464964832661,0.5269479223581449,0.5154591611205526,0.5062584981572916,0.4970428928362217,0.4855566657350634,0.4740580916099423,0.46255951748482105,0.4510609433596998,0.4395623692345786,0.42807273479723007,0.4188390253168779,0.40965711193786214,0.39817111261149696,0.3866726294449768,0.3757533486801168,0.36804235710656386,0.356780206558024,0.34644421546908943,0.3382768782261979,0.32804162716703844,0.3199169290225592,0.31185162211667694,0.30600316424487295,0.30020978043706803,0.29507532898589905,0.2911517948047292,0.28970875818373987,0.28654671525762887,0.28290850858033834,0.277219611325912,0.27207618765411223,0.2680088065594872,0.2623592201075591,0.25762211792961476,0.25312153469654053,0.24525028407683658,0.23770708232796955,0.2302720421015939,0.22323210545531402,0.2175462054429419,0.2134107849462299,0.20607917904590878,0.20026346989419197,0.1975669217414896,0.19388877065183963,0.1934470882007775,0.1972827811467508,0.19940555203632426,0.20343003540316862,0.21098089578168233,0.2166957457073464,0.2227404660781921,0.2332590753506516,0.24113612072023427,0.2508154101545609,0.2587610661700124,0.2702065143243979,0.28136279961587307,0.289014663610087,0.2984229973105528,0.3068650024656032,0.31472561814698097,0.3244040872715964,0.3306782642707917,0.3382261824462971,0.3444533366663961,0.34914217676131054,0.34960119673250944,0.3524483064907705,0.35785198130614826,0.3550306616372455,0.3511081088921856,0.34955460719364106,0.3464344247898683,0.34127695765322263,0.34200013126369355,0.34858158756549085,0.35601598628176956,0.36291224750918283,0.36497805375118153,0.3679326568605261,0.36487973022583586,0.3597020016027339,0.35906006440143257,0.3629227131742586,0.3633865720477474,0.36352905691791004,0.36710587421988194,0.3660458805417781,0.3624791943044944,0.35477166946701655,0.345931473236188,0.33445059979881586,0.32295202567369463,0.3114534515485734,0.29995487742345217,0.28845630329833094,0.2769577291732097,0.2654591550480885,0.25396058092296736,0.24246200679784613,0.2309634326727249,0.2194648585476039,0.20796628442248266,0.19690268780950704,0.18925010728646752,0.17807351475586297,0.16657502779940114,0.1550764536742799,0.14357787954915868,0.13207930542403745,0.12058073129891622,0.10908215717379499,0.09758358304867382,0.08608500892355259,0.07458643479843136,0.06308814365562465,0.05241255791839433,0.04453415992142895,0.033195167437181594,0.021696604050228552,0.010198628735898052,0.0009292634839490055,0.0,0.004770823882112418,0.014120136893964796,0.025613700730215017,0.03711227485533625,0.04861084898045742,0.06010942310557865,0.07160799723069988,0.08310657135582111,0.09460514548094234,0.10610371960606357,0.1176022286705184,0.12885473160881555,0.13654369602139316,0.1474950419214679,0.1589935503542661,0.17049212447938733,0.18199069860450856,0.1934892727296298,0.20498784685475102,0.21648642097987214,0.22798499510499337,0.2394835692301146,0.25098214335523583,0.26248071748035706,0.2739792916054783,0.2854778657305995,0.29697643985572075,0.308475013980842,0.3199735881059632,0.33147216223108444,0.3429707363562057,0.3544693104813268,0.365967884606448,0.37746645873156925,0.3889650328566905,0.4004636069818117,0.4119621242578072,0.4232277011972363,0.4309453009190818,0.4418549621433778,0.45335343773001446,0.4648520118551357,0.4763505859802569,0.48784916010537815,0.4993477342304994,0.5108463083556206,0.5223448824807418,0.5338434566058631,0.5453420307309843,0.5568406048561055,0.5683391789812268,0.579837753106348,0.5913363272314691,0.6028349013565903,0.6143334754817116,0.6258320496068328,0.637330623731954,0.6488291978570753,0.660327771982196,0.6718263461073173,0.6833249202324385,0.6948234943575595,0.7063220684826808,0.717820642607802,0.7292280543893985,0.737530323312249,0.7477137798987681,0.7592118992308838,0.7707104733560048,0.7822090474811261,0.7937076216062475,0.8052061957313685,0.8167047698564898,0.828203343981611,0.8397019181067322,0.8512004922318535,0.8626990663569747,0.8741976404820959,0.8856962146072171,0.8971947887323384,0.9086933628574596,0.9201919369825808,0.9316905111077021,0.9431890852328231,0.9546876593579443,0.9661862334830655,0.9776848076081868,0.989183381733308,1.0,HB
0.2419511010604114,0.24211242919072418,0.21961850465000743,0.19361753243259106,0.15784235693232085,0.12462696413524244,0.08698044026180174,0.043565281607722994,0.012317485619295132,0.0,0.021907396172194504,0.06187143041836696,0.10222001468419983,0.13843600922174093,0.1728068284042561,0.20402564070990503,0.23052755680786707,0.25568276930073064,0.2811665129925378,0.31874080063979093,0.3654557763763584,0.41554748455982016,0.47173079888707314,0.5224258305589691,0.578412060940398,0.6294373446953874,0.6849746571245834,0.7364653831250763,0.7915372533087688,0.8435297676292997,0.902613005051373,0.9611918175614578,1.0000000000000002,0.9839551586360391,0.9361277336218914,0.8784397490802618,0.8309350996376084,0.7826314257360576,0.7312693215855586,0.675261565666675,0.6159472819769276,0.5566153672860492,0.49759334480430595,0.4457997324859557,0.39007661115048875,0.3307669484665203,0.27144910809323686,0.2151971013775722,0.1645722042573181,0.1437516275230042,0.19181365925600358,0.23962743961535904,0.28469143131088437,0.3265542918681812,0.3492059326343304,0.35121911484539914,0.33719707766631646,0.31457471336254383,0.29597671248288315,0.27042652540005996,0.24662342761086675,0.23780472266680497,0.2378001717570808,0.24900513210816344,0.2623491439415093,0.26799538803697454,0.2514083502322344,0.224938999738864,0.19321869737172648,0.157314672283422,0.1197799198007139,0.0839526368576402,0.04495646222446559,0.018563397112441926,0.024048830111917052,0.05294406495745663,0.0866337689705039,0.13023472879249676,0.16603296249512445,0.19769535295448315,0.22452748424231905,0.2451633976443952,0.2711094621913963,0.3041490031067049,0.3501691126244475,0.4008986101822478,0.4524342102593597,0.5069213379764974,0.557403193876078,0.6145392303763637,0.6655797031742419,0.7205586366551124,0.7710933797534893,0.8255979686527433,0.8773896953876748,0.9244929117989937,0.9162998052087816,0.8715884055138539,0.8275262745763665,0.777816913555321,0.7332372498924087,0.6867960194558098,0.633570934263816,0.5743519184151886,0.5150219436496146,0.45707239331044547,0.40664322310783896,0.34850252952859995,0.28917166719698595,0.23027912991455102,0.17890838725170122,0.12644454530106475,0.13086823354304933,0.17944283421789087,0.2282948659448314,0.27263725392096494,0.308712043832007,0.31771580567152835,0.3160298242187505,0.29806750098044343,0.28187020345371083,0.2594134300526165,0.23878651323305888,0.22872662007009614,0.22840404190106645,0.24014581289201864,0.26030598873677313,0.26732171755623413,0.2549181982474438,0.23080620264527818,0.2005994492791554,0.16397433385869808,0.12871452056607025,0.09419520953154814,0.0599640707710869,0.030566840675255946,0.03665894171885431,0.06834755071148924,0.10310676938128083,0.1381828591895593,0.17169318005026812,0.19937291033666127,0.2235629474011167,0.24351541982545677,0.26855342085069345,0.31631535366972807,0.3687102616780049,0.4191368100711188,0.47423244125139186,0.5250851713839391,0.5788328632087925,0.6315842633414273,0.6832454768539982,0.738824211741494,0.7917595652093372,0.8455717011272406,0.8944535417184116,0.9202620126118661,0.8908195802551384,0.8347654950342236,0.7843396693015527,0.7261021164609092,0.6667710541210863,0.6076286112701508,0.5585450313630271,0.511409431825476,0.4524018752455443,0.3930761531787368,0.33593240078620457,0.2851491906307779,0.22655546552909112,0.16872272910174724,0.12016257803054531,0.11548472509481389,0.16797551428308055,0.21584866358979182,0.26093472312038646,0.3008699223694913,0.3237246245888845,0.32726596007402686,0.3164230825211982,0.30440101869207936,0.28577564182330306,0.26211338561660713,0.24324111493585843,0.2476732742570238,0.25218129542126766,0.2608977788789346,0.26863032947470855,0.2598566708939052,0.24040273147070446,0.21097804053668567,0.17450925923612703,0.1338505662992282,0.09930709379786329,0.06231820240855335,0.03095741166581223,0.015879829897476494,0.04227823423427779,0.07948946706232296,0.11325546409065979,0.14707538872663495,0.17956673156912917,0.20798921782410695,0.22830725578593491,0.24967202486516893,0.2850524072232987,0.32991828833119685,0.3795240947808092,0.433889288734042,0.48601803020454004,0.5412985189733479,0.60059661209105,0.659480661248905,0.7105992825360825,0.7664430238495761,0.8172778658396507,0.8741961900304898,0.9275236848369357,0.9729409714134525,0.9715006169598965,0.9202567420054473,0.8687557042508856,0.8126981372799034,0.7533973266447271,0.6971765786142596,0.6458108633926221,0.586866540785494,0.5275347737846021,0.46874446122926394,0.4177024602977848,0.361010727027016,0.30168620727508766,0.2423901781572788,0.18720357237410878,0.14307359873783554,0.1594323035687577,0.21280230596892702,0.26716723967889533,0.30739960005978184,0.3251806146838996,0.32789249133518306,0.312758251164422,0.2944173113422144,0.27984177852600456,0.25413924641236707,0.23034412717649988,0.2342473573747581,0.24674140482519125,0.26192119064055785,0.2765459287983765,0.27103103504690007,0.2527903325274412,0.22165371060403816,0.18847672499141255,HB
0.18681399524899023,0.1691251678117256,0.1787745100255922,0.1954024832192387,0.19233972471899752,0.17016290583732463,0.13489898416411128,0.10365735281673838,0.06403163901486253,0.0326811594116696,0.0,0.003632390444882727,0.031687277246618795,0.06641618110817382,0.0965958031148777,0.12956665378156607,0.15835477608267334,0.17764691733367588,0.20445024993236616,0.2428177164127685,0.2870144661069882,0.33259738860706034,0.38156202804220407,0.43134418224680715,0.47708296475650025,0.5279562958492847,0.5793415572263301,0.6305718576099233,0.6773931411620799,0.7257851295112727,0.7769904146035684,0.8232193594022765,0.8512530188070517,0.8276373881785568,0.7834452756302301,0.7356162670928288,0.6892958446260409,0.6381722564782195,0.5867865579064502,0.5354008593346806,0.4840151607629115,0.4326294621911413,0.3812653165692981,0.3323411213577159,0.28887596426356654,0.2498798697820468,0.22205256844913723,0.22074904227561865,0.21283328797070133,0.20069446954188663,0.18741176199264364,0.1684941111382734,0.17685416489449812,0.19294231034316467,0.18459597359031887,0.16473087941512787,0.1386781876091252,0.10848316168257588,0.07852109642762506,0.048025867564720714,0.03655044584567735,0.057862137292600924,0.08630164079672098,0.11813473489987292,0.1434156838521925,0.16828350058629216,0.18684780320340022,0.21503353103472778,0.25458519872614205,0.30150782996817505,0.3487062639953411,0.39662010023336136,0.4479448921616753,0.49917084874711604,0.5459514294048482,0.5943873642968742,0.6457388081898523,0.6971245067616225,0.7485102053333916,0.7998898051211099,0.8497019390613052,0.8954120902891143,0.9424740931687101,0.9589873123344972,0.9258353418701446,0.8763755956707895,0.8303482012041528,0.7809825798229169,0.7296090600384646,0.6784626501265127,0.6321034188090371,0.5831806720797326,0.5318151039050711,0.480501364856631,0.432767389306252,0.3853511844612789,0.33697614057076164,0.29188561283813286,0.2470550894085719,0.22062741445199974,0.22077845360072135,0.2201789694848848,0.21690671334565503,0.20642742286970206,0.1874174669190094,0.18728595343051158,0.19609551743367182,0.19131376557291913,0.16672569359844336,0.14003073723262482,0.10167626308113054,0.06838801612129197,0.033373999431745016,0.02028427322632087,0.041101223983166735,0.074917073135357,0.10594287554241255,0.13517688671081807,0.1611203952221525,0.17858393262826855,0.20092798739535955,0.23885005597892128,0.2836287107602531,0.3332246979298781,0.3814130641136739,0.42842095776556466,0.4796697113863513,0.5308861905940034,0.5775779649366286,0.6261097831948359,0.6774636274145294,0.7287278884018642,0.7758673945831571,0.8239218906072769,0.8742758266871797,0.9191157217744259,0.9449408557845047,0.9152205471703605,0.8646820837716873,0.8133060651698227,0.7637080180499634,0.7178421850215198,0.6668884620811324,0.6155029891012,0.5641278919596415,0.5146678051746587,0.46871991840642524,0.41778676871580656,0.37016878294062283,0.3250102788491853,0.2791571191686135,0.23444909938884484,0.2079617578776527,0.19990805234799058,0.19666102876699876,0.18952373088608532,0.17248784640402004,0.166528133735119,0.18612879866871568,0.19641482478273264,0.1801171739881413,0.14970280423056437,0.1148421478504631,0.08028651449159896,0.04763129386369669,0.01951544592035903,0.01752089958981884,0.047599750957886044,0.07704483671583295,0.10902507694596486,0.1359202335459695,0.1598856791172132,0.17727234841074968,0.2083840673699755,0.245875205180903,0.28289816067201734,0.32898685753315293,0.3756864485410907,0.42415434455517653,0.4755065885570606,0.5267771677962536,0.5739758781876192,0.6219705546463148,0.6733005045852378,0.7246862031570063,0.7759409867665534,0.8226186199477836,0.8519917145393672,0.8278658576186912,0.7815956975977925,0.7341673158912259,0.6828961015253945,0.6340286914855513,0.5876136441281865,0.5364644308604107,0.48517574500635274,0.43785052737592767,0.38999655481271,0.3391275909865268,0.2945383487018949,0.2525106609527745,0.21700600700454253,0.211330761543022,0.2116544970700609,0.20472581977535875,0.19391111157381946,0.17855327274267108,0.17682379980129448,0.1962818267788342,0.19935210458082153,0.17588993579684686,0.1495878061740019,0.11624403492095126,0.08527336736586255,0.05832626292439169,0.06061968839304055,0.09046546438523317,0.11962884040220545,0.14965881540926151,0.17269802576198012,0.19102367675289034,0.21541539158282808,0.25254125328419375,0.29848735342394317,0.3469952038205779,0.39710760904069087,0.44270695170835683,0.4926182731191411,0.533362726268801,0.5760606164743225,0.6243228062832056,0.6756707496997247,0.7269583092407901,0.7743191309758499,0.8221452774297489,0.8734536498487344,0.922871948369479,0.9684240497891301,1.0000000000000002,0.9740933220798602,0.9235737994033337,0.8721921738950118,0.8221526065687903,0.7765143037471058,0.7257795151954878,0.6743944638688464,0.6230252175527333,0.5739147543401384,0.5276937061585452,0.47664082244169137,0.4284036253209669,0.38157871223246054,0.3347368516061062,0.28669244546017447,0.24365827738272827,HB
0.24372979107264414,0.27312438621377677,0.27487986837380307,0.2516802786349206,0.23443180574725264,0.2117209915656656,0.20919405063179108,0.23670335423199151,0.2664222354712069,0.3046826918827855,0.33707436860106854,0.3728234311981603,0.3732160929617653,0.36304198371939533,0.36920084640582485,0.3418785459547541,0.33381809527136996,0.3628735393025341,0.3871546058099523,0.39579745139694433,0.3966215561439873,0.3605899075573732,0.3136362891838612,0.2662039357940007,0.21745890237990573,0.1676949626448122,0.1218624860305717,0.08036887321320918,0.0342186886228707,0.0,0.016015998927720987,0.064369148055885,0.11187887834432231,0.16076170117148392,0.21225555044157063,0.2636192644450648,0.311065324455016,0.3600352160265924,0.4115334312933455,0.4630638690833707,0.5145943068733957,0.5660865936600402,0.6148869804858351,0.6624787517758203,0.7138721717645088,0.7654026095545335,0.8169304402423984,0.8657842695979819,0.8666462887566729,0.8181392607309105,0.7673982824901836,0.7209896364520701,0.6739053343280862,0.6317763065101137,0.5829889566971206,0.5360404935499122,0.48566566616684514,0.4409718716459389,0.39914833172624264,0.3740129823508235,0.37722182914098157,0.36414615814514784,0.34243976355294714,0.3126194830989716,0.30316087251590174,0.3149739394061245,0.3419873671914272,0.3655492301176734,0.39850245229245485,0.43444985792515534,0.463150871040788,0.47245308186438717,0.46586586546381203,0.42500361589430613,0.3782367784018811,0.3269912336747317,0.2754631933202578,0.22483089742305484,0.1784078029712315,0.12772347045522592,0.0783080009307765,0.04647986633132262,0.06632082441466824,0.11593277280779535,0.16378865412326327,0.21230953910552786,0.2637860041922572,0.3153155081626705,0.3662405987635945,0.4127383731412909,0.46306802924223633,0.5145943068733952,0.5661247446634209,0.6176551824534459,0.6691693780064697,0.7186657839288907,0.7656698540405101,0.8169331395617153,0.8684634851345842,0.9199634735073295,0.9632419555658832,0.9464367326781847,0.8997038303912165,0.8483345869869473,0.7971605955396271,0.7503612273925343,0.7005752015142536,0.6490565429817426,0.5975326344350002,0.5473933775029002,0.5025580866085072,0.4594193697666934,0.435256288154226,0.42385268260016085,0.3992206602686502,0.37160214217279297,0.34022554426102547,0.31056427663134956,0.2975995191245785,0.3176812097917211,0.35158256085116035,0.3868532749155039,0.4139019392902651,0.4318443649985414,0.4247309255595607,0.418128766946524,0.41859086904338183,0.4152248977633478,0.40394747205782655,0.38872750843383475,0.38076281200421336,0.4074633140867795,0.40599337992933215,0.40376739865936073,0.40950733209302725,0.3707762403443481,0.3244204194603234,0.2753775379537968,0.22845584528980145,0.1773589856556924,0.12968143283024658,0.08103245734501852,0.034217694027863454,0.019774124109437574,0.0569032496772669,0.10559812090029363,0.15287467418839185,0.20420393549754035,0.25573437328756554,0.3072646866641565,0.35848968440056816,0.40541215178451007,0.4550268873594029,0.5065426759687043,0.5580731137587293,0.6096035320412786,0.6609614807808869,0.708367600211328,0.7573810261551127,0.8088814164398678,0.8603610042494233,0.9032968617621074,0.8867181441299347,0.8362565758616641,0.784726523725794,0.7331960859357688,0.6816670946467184,0.63090151329408,0.5844639905663856,0.5347032876307277,0.48830701173609403,0.44039187252442724,0.39498771183242043,0.36541974260736476,0.3652284307243284,0.34910465905598576,0.32277349077647177,0.294149687907142,0.2683797937959157,0.24860333086345665,0.2437064009713683,0.26133191319114957,0.2976229653492529,0.3333648675254105,0.3595636219259196,0.3695802118529611,0.37865641274332773,0.3688006263421172,0.34118813015047456,0.3361449045584991,0.36778278431146105,0.3931246821439335,0.40727424294529235,0.409776904448213,0.3682610083789005,0.3213598106302754,0.2718502406369748,0.22280854726822585,0.17544268367956428,0.1245168042346092,0.07785195388343735,0.03156265724348317,0.022520536300976945,0.06044650767586024,0.10961968845856729,0.1611276622754565,0.21241447941906477,0.25952608369833796,0.308895611622073,0.3604055750485552,0.4119360128385804,0.46346645062860536,0.514993126197039,0.5654364783952014,0.6118936792217197,0.6627453221854128,0.7142747533097425,0.7658027796397525,0.8163994292680005,0.8628317340723616,0.9135543573069064,0.964938226928837,0.9999999999999999,0.9676934537684573,0.9163708947326933,0.8652108754515183,0.8184395203850833,0.7686120639405171,0.7170928241263853,0.6655623863363601,0.6140979287554001,0.5658087641820125,0.517882137893437,0.4705053737977468,0.4252250115530548,0.3922163338565655,0.37608880562836167,0.35410665447263356,0.31654787802550255,0.2945947766019198,0.2803187351298564,0.2494323112459318,0.24408826744055145,0.26339114721097,0.29298853775799105,0.3269651883155219,0.3519625012405617,0.37614119143161384,0.3853419220072781,0.36890520155029083,0.338905428983573,0.3520574916577056,0.38624622395233643,0.40669156766671277,0.41664489165937957,HB
1.0,0.9907100420731306,0.9783042901355298,0.9658865318757576,0.9534687736159854,0.9410510153562127,0.9286332570964407,0.9162154988366681,0.9037977405768957,0.8913799823171235,0.8789622921892278,0.8678250115882008,0.8593558315547988,0.8470668609602262,0.8346491070186711,0.8222313487588991,0.8098135904991265,0.7973958322393541,0.7849780739795819,0.7725603157198099,0.7601782596400272,0.7518604769845357,0.7406626244222635,0.72824719868113,0.7158294404213573,0.7034116821615849,0.6909939239018127,0.6787965930566303,0.6706223537433199,0.6590976969514019,0.646680806863133,0.6342630898663278,0.6225518367965993,0.6145806077491432,0.6023676787890081,0.5899499948985377,0.5786480407778051,0.570329958999331,0.5580545672680507,0.5456368145260005,0.5332190562662283,0.5208012980064561,0.5083835397466835,0.4959657814869113,0.48356455778848273,0.47465043587904365,0.46406562392050554,0.4516526644482314,0.4392349061884592,0.4268230185117817,0.416766812356519,0.40730038384059697,0.39492178914977893,0.38250403089000673,0.3700862726302342,0.3578014403581362,0.34955920683010855,0.33818935204170686,0.32577316230878184,0.31371193807713016,0.3056434675422688,0.2938787727623766,0.28330049062375995,0.27431757652360567,0.2619825184005654,0.25127338919067266,0.2424113536944602,0.23011153442908416,0.22170811965661474,0.2130879716263564,0.20766223191001743,0.20582343521582547,0.20156242632791088,0.19628887772851034,0.19138999070774987,0.18897960505307443,0.18279766761513305,0.17917681040669997,0.16888453898060196,0.16086204590637043,0.15286484010015589,0.1465299741625139,0.13959188137782108,0.12784541711327035,0.11573560568757679,0.10762936058898354,0.09594990179354923,0.08353234205726079,0.07164610340657063,0.06371362130114389,0.051867093729951685,0.04371513113383685,0.035481196569218665,0.02651180495455896,0.02023678538814555,0.014126115446448928,0.005351391722373311,0.0036713614818693063,0.0038615809098526688,0.010294328867749836,0.01736746412550494,0.025024238267734256,0.03720169749400215,0.04882955562159763,0.05695389788363747,0.06735852392090413,0.07617474617775977,0.08841911042912542,0.09658609395267237,0.1080508514998827,0.11935184686199474,0.12762428132873205,0.1393650434800885,0.14740329436396438,0.1594199092726376,0.16961040756381573,0.17891276677431767,0.1898741213093238,0.19795744172131513,0.2050026280346452,0.21270612410750167,0.22294877650996392,0.23189179239459734,0.2406430543293827,0.24961771195497118,0.25766587235247984,0.26083948655462774,0.26082184072854897,0.25643262789320787,0.24825998414393846,0.24124682697176847,0.23351214494307815,0.22377674919685042,0.21758617911802447,0.2126017201290129,0.20831143584410805,0.21158476948726745,0.21782178599287638,0.2261082794146927,0.23287323043164354,0.24073893371726396,0.24435253579118488,0.23700587221301284,0.23298136102988187,0.22894696923159652,0.23370675558392884,0.2393900164730609,0.23757570445524734,0.23414086029562953,0.23405816015889735,0.23206276603107268,0.22161194515564087,0.2136895123002337,0.20159555788006966,0.1891778147340587,0.1767600564742865,0.16434229821451418,0.15192453995474176,0.13950678169496955,0.12708902343519712,0.1146838388305621,0.10534551420124538,0.09518786394706757,0.08277590639651722,0.07035814813674479,0.057940389876972365,0.04552263161720016,0.033104873357427844,0.02073253965841404,0.012422339744181832,0.001799226284471378,0.0,0.006924667579417565,0.01858527921074893,0.026842890020323695,0.03821071354893846,0.05062841039406141,0.06304616865383383,0.07546392691360615,0.08788168517337835,0.10029944343315067,0.11271720169292299,0.1251349599526952,0.13755271821246762,0.1499704764722397,0.1623882260955769,0.1746283127822974,0.18266960551184297,0.1942836443699265,0.20670135177069238,0.2191191100304647,0.23153686829023679,0.2439546265500091,0.25637238480978153,0.26879014306955373,0.28120790132932594,0.2936256595890985,0.3060434178488708,0.31846117610864333,0.33087893436841553,0.34329669262818774,0.35571445088796005,0.36813220914773237,0.3805499674075048,0.392967725667277,0.4053854839270493,0.41780324218682174,0.43022100044659395,0.4426387587063666,0.455056516966139,0.4674718656363709,0.47865251797603003,0.486977855544268,0.49936963400481893,0.5117873922645911,0.5242051505243636,0.5366229087841358,0.5490406670439077,0.5614584253036804,0.5738761835634526,0.5862939418232248,0.598711700082997,0.6111294583427697,0.6235472166025419,0.6359649748623143,0.6483827331220865,0.6608004913818589,0.6732182496416313,0.6856360079014036,0.698053766161176,0.7104715244209482,0.7228892826807211,0.735307040940493,0.7477247992002655,0.7601425574600374,0.772558291484779,0.7838249449375022,0.7921125079420087,0.8044556744987171,0.8168734327584896,0.8292911910182622,0.8417089492780346,0.8541267075378068,0.8665444657975788,0.8789622240573517,0.8913799823171235,0.9037977405768961,0.9162154988366681,0.9286332570964407,0.9410510153562127,0.9534687736159856,0.9658865318757582,0.9783042901355298,0.9907100420731308,1.0,HB
0.43340268248806046,0.4398607043837711,0.43237980856770764,0.42602393731268584,0.42495592791191894,0.4276350175708644,0.4460759517974259,0.45437447640893247,0.4285264648353181,0.38246108143294266,0.33566101475518206,0.28371183918555953,0.22987541393121458,0.17602348797824396,0.12218272584762557,0.07000005738993309,0.023288831515728026,0.009683592183959422,0.052382757948735925,0.10277820136609306,0.1536231442595668,0.20740957478615474,0.2611500974303169,0.31153740260262563,0.36253885360305815,0.4163367545243929,0.4701886804773633,0.5240406064303339,0.5778925323833043,0.6317154357437281,0.6832867119060005,0.7331595274622601,0.7868197608303958,0.8406716330693423,0.8945235590223127,0.9483716169248247,0.9992040748704124,1.0,0.9547410808377018,0.9114171599243351,0.8606961451247094,0.8104416553595452,0.7593265653693008,0.706525568995435,0.6574899981737762,0.6067768838544639,0.5568842223518663,0.5088218158013281,0.47295943792405215,0.44642924534915174,0.42329401669797073,0.3950571699084896,0.3566280889156861,0.3150744179861066,0.2715558532269018,0.22637261430949607,0.18151880484960026,0.13745527723966822,0.09529700760109061,0.08297207981425703,0.11222608493937236,0.15480467523525765,0.20120373361277555,0.2500899005165981,0.2932160385375755,0.33001199043539253,0.3712329037249934,0.4083056319407167,0.4387949247006381,0.4612908806243107,0.4612009751410707,0.4487941142370554,0.4397277175240498,0.44451172541703843,0.4578525420515175,0.4674356181960063,0.4626367402831518,0.428528213329313,0.376627312017879,0.32752088343573704,0.27530406821511944,0.2261116025677905,0.1736053128981041,0.12206105375290721,0.07228031107478983,0.026679441864889908,0.03134426637873877,0.07920566128914475,0.1284770456502824,0.18191993213805302,0.2357714247009599,0.2895529923630086,0.3403370800688025,0.39093460465221874,0.4446985994340277,0.4985505253869976,0.5524009248000242,0.6055623704515792,0.654633382601498,0.7074812417822401,0.7613296260730363,0.8151815520260065,0.8690334700439509,0.9225034253756005,0.9529709067471969,0.917492947341772,0.864178872207115,0.8103275086767762,0.756602511544895,0.7063669275993315,0.6553048338979467,0.6049099038921751,0.5564396449886609,0.5113695899879404,0.47130887902954266,0.4412513103320047,0.41713130353617756,0.3879667183440457,0.3496669145426192,0.3078620364373278,0.26519606828955133,0.2183853540264573,0.1716375691735751,0.1313600369997222,0.10757413862095311,0.12507122492999068,0.1670808151388814,0.21444620810206916,0.2595758962769056,0.30400197834656195,0.34823696862543463,0.38966406955469923,0.4224511113769066,0.44316901723666013,0.444005841456358,0.42728017862702583,0.4176435759361866,0.41604106692942977,0.42381974663941613,0.4381536256701172,0.4417356284675579,0.4272722958862524,0.38498396494714504,0.339392906980039,0.28927753863020467,0.2401001327178386,0.1876797624038843,0.13602563876617801,0.0867751075333808,0.04249416132935979,0.01900753028906854,0.052020490914372663,0.101289014275737,0.1548765375638197,0.20780069984073946,0.25686869584259575,0.3099560961000962,0.3638063482267111,0.41765827417968115,0.47149489351850227,0.5232543936883535,0.5648710582690809,0.6033233824593341,0.6464854819677707,0.6940039871306117,0.7377025565203946,0.7789766384133371,0.8150715472695208,0.8493318334591574,0.8488311822136857,0.800460460053341,0.7475187090589596,0.698475454672948,0.6470601125323624,0.5985395452134116,0.5514098216406925,0.5106285820135946,0.4862850673335456,0.4587331841418635,0.42602638672242177,0.39008750868520126,0.35492825582895127,0.31689759923529237,0.2694635216575372,0.2226860391289347,0.17876382349472508,0.13863005289364272,0.11544676765534534,0.1353738778194078,0.17740170208604322,0.22139087849957817,0.26595238368719465,0.30983318299993234,0.3517413527880432,0.3922773688032527,0.4298563407700279,0.4612765283881254,0.4712531825464673,0.4471449867794296,0.4238229278928517,0.4150115235287498,0.41162420608389916,0.4163118170895296,0.4255225526828571,0.4233779670827381,0.3881180357388122,0.3415642353913594,0.29188424692670845,0.24097668015651352,0.19066918332392357,0.13750984675868527,0.08838333075762761,0.036128632763192114,0.0,0.02319816077291892,0.0721710812348404,0.125831208142555,0.17961130430223982,0.23037202730978357,0.2809922739829005,0.3347583296499079,0.3886102556028782,0.4424621815558484,0.4963141075088201,0.55016603346179,0.6040179594147602,0.6578698853677304,0.7117218113207019,0.7655737372736721,0.8194206700217027,0.8720214443178073,0.9068287099512248,0.8765475782330227,0.8231656294497357,0.7727627110311771,0.7217813830598973,0.668913169253274,0.619917910447428,0.5697850240261974,0.5202028611664781,0.4728614645780943,0.4296553149411849,0.3964178035297009,0.37788229590499245,0.35720879575197373,0.3225575366256529,0.28037432925253314,0.2446117690198647,0.2043836259445092,0.1657294949249546,0.15440958756948753,0.18430857035470616,0.22790154413910424,0.2727768233168234,0.3156286082298758,HB
0.8365973861826775,0.8780246543417308,0.9230053769331074,0.9670320231622825,1.0,0.9837757585076624,0.9424981445473896,0.9000681972158194,0.8551563516869874,0.8116667078855212,0.7701310238922291,0.7253755533999661,0.680383741970796,0.635391833162095,0.5905022907999492,0.5483910929886443,0.505800820051486,0.4642628054401493,0.42150283673571154,0.3809411650820155,0.34161574454506627,0.30444319930221786,0.2758990504119089,0.2552764476426621,0.2269818798215123,0.2016885437587841,0.19469895924086233,0.1903352114513961,0.21280120955000537,0.23554966637931596,0.2243779629697551,0.19597764370885118,0.16607821243962195,0.1389769871957155,0.11075079186557468,0.07978100201157867,0.046008165936210155,0.013586874277805028,0.0,0.020928470709682734,0.056052017306963076,0.09708173374991613,0.13525681620875596,0.17415420114949398,0.21298191881442663,0.24970647820578362,0.2834347678146615,0.3082091729738231,0.32043525209174994,0.32433042048647753,0.3235586351327395,0.3211787939644659,0.3224786646549527,0.33087213257931525,0.331146432552736,0.3247289194219426,0.29198229210109017,0.2506909196284859,0.2093497724981055,0.1671807593627589,0.13399469300908484,0.14747120340907105,0.19020399343215721,0.23153930096171327,0.2753213662920655,0.32030551037469646,0.3652973679005719,0.41006872283902085,0.4516533248040623,0.4950798123632202,0.5400571848102943,0.5850490936189953,0.6300047627504174,0.6728661593292934,0.7149253907601288,0.7598088592458926,0.8048007680545936,0.8497926768632945,0.8947845856719955,0.9397386356939118,0.9781009693689197,0.967655234698991,0.9264141418878996,0.8823214121249346,0.841151417677919,0.7967121503843656,0.7518250120815789,0.7097248874718579,0.666907587833918,0.6222662964357512,0.5808872400797634,0.5372837373383182,0.4952854237204468,0.45278148682152364,0.4122398888683342,0.37795638241410845,0.3412816293733183,0.3043587819645671,0.2738865767279791,0.2549408100407826,0.2371416865355861,0.21224644247138513,0.1853918427168616,0.1563728081890542,0.12509799720570802,0.09117933277249357,0.05883853661938476,0.02775439672223079,0.006540784547730327,0.01872290008614752,0.051343880606070647,0.08851333068459966,0.1260952899735509,0.164455955891463,0.20265506041073422,0.23932992443780865,0.2739650268775522,0.297747503929392,0.3100455874584722,0.3126917940544258,0.316716369354447,0.3167647338029156,0.31089040558933323,0.31973294867468294,0.3207314124182775,0.3188523686513529,0.28968114160408054,0.249673382497836,0.20680053491300432,0.1655649734795911,0.12579325384126216,0.12594885753234641,0.16370838614017658,0.20816372873589561,0.253148981629883,0.297087035988274,0.33833951441648213,0.38292302832422287,0.42791439105817053,0.4727313605424034,0.5120492923788419,0.5486550813633949,0.5922672657183868,0.6372503278064853,0.6822422366151858,0.7271205651581739,0.7691702296143682,0.8120459117003086,0.85700126336476,0.9015450387270619,0.9426638986728325,0.9749634864335918,0.9532573061233681,0.9119504293133592,0.8690378983181734,0.8241076902849641,0.7810765282061175,0.7391687053311041,0.6943241737417575,0.6507814001536495,0.6092867301650974,0.5648692570496953,0.5253375426377093,0.4893544514560987,0.4488017638061813,0.40541059614021624,0.3621273650134207,0.3238366833594182,0.29282324081654565,0.26439776170957874,0.2481343460049178,0.23446905029885,0.2144947010693753,0.1871340074385459,0.15775665608017198,0.12708597146952416,0.09600735588692733,0.06319438200221505,0.03794628076555673,0.04610888616354836,0.07658202769507372,0.11302947855641898,0.15109895308925836,0.1920691463159827,0.23235139916167769,0.27021840194890423,0.30545351551972455,0.33456775721905607,0.35309920792217775,0.35738982057831425,0.35830182411686984,0.35578686038015805,0.35527875254267993,0.365386014192311,0.3642195139542642,0.3612594217663836,0.3321077696871906,0.2884613128650627,0.24355522427373655,0.2013472066122941,0.16691626234833878,0.17655082153512758,0.21618785630081527,0.25895598439422063,0.3039052630715118,0.3484888099120981,0.3897433643659596,0.43367889956276984,0.47866559249120455,0.5236575012999048,0.5686480604122462,0.6130361100691294,0.6541956997101809,0.6984195919531279,0.7434091757355034,0.7884010845442048,0.8333185415413092,0.8756581156021152,0.9182220342898418,0.9625203553479126,0.9998899448574582,0.9960606145900465,0.9553068399702495,0.9136566900958153,0.8703809338747029,0.8254075932874493,0.7804156844787479,0.7354237756700476,0.6905993509949638,0.6488332980987016,0.6056460704285159,0.5621359800369229,0.5208585713766255,0.4795764584236101,0.43801384769677354,0.39745706870425,0.35798800192219926,0.3232177610468746,0.2976580754783871,0.2794574266319507,0.259873326937892,0.23397092622873183,0.20497723750531505,0.17443776890372265,0.14352927849991948,0.11120639505768926,0.07557635829107001,0.042763922283890365,0.02063429997877464,0.032676224357052974,0.06702997806213684,0.10544926618578865,0.1443017258667948,0.18286478857618027,0.2182551590085008,HB
0.16583252390014058,0.18550638204582148,0.19567965869066362,0.1704084997234625,0.1404406646787868,0.11260765849757359,0.08887993224620139,0.0824548933433511,0.10280875300636139,0.13010559412557487,0.1604592837541038,0.18972230114870692,0.22017289295021203,0.24669837534849093,0.2518168783483372,0.2387985324854599,0.23164363144939126,0.24703606147135626,0.2521815641672186,0.23780071444889694,0.2302363120540123,0.21736173475847775,0.19362134929890507,0.15984475952030908,0.12419740446006455,0.10427593144754554,0.12651935888924282,0.16279364672082497,0.20080104574189306,0.23776774115889587,0.27578720321907635,0.31589718227132424,0.35603659640812235,0.3957312965567096,0.43190437982237984,0.4710456742201392,0.5111816993942544,0.5513210627532088,0.5910027744472341,0.6271647864477357,0.6663290374049122,0.7059379278745603,0.7384911868827742,0.7320557937975543,0.6934664896487333,0.6559980660417877,0.6185046585100935,0.5803673237038192,0.5435536568148938,0.5053930641418163,0.46899979330336006,0.43301914294703203,0.3974175667155667,0.3627717064816136,0.32454843269195177,0.28721146412896126,0.25202515309524653,0.21704155347937892,0.18527500715811185,0.16059921921221232,0.14789440402302478,0.1339547203760595,0.11191830555583049,0.08416153774015789,0.05514408966739259,0.024843376710344534,0.0018467862741501362,0.0,0.02385648541403862,0.053366928779018274,0.07888614105546021,0.10716705167771057,0.1386036377385249,0.16847439354153648,0.1958951698823751,0.22015633592474226,0.23606866787801106,0.24545005144330745,0.26989928262041185,0.2970135072376744,0.31931169259157266,0.32451159784815875,0.33418863802957277,0.348947781996496,0.3444150767111456,0.31025488881483954,0.27848694224996595,0.2760617723447939,0.307575906070065,0.3435040571018939,0.38231252886829437,0.4190230451987782,0.4573603889216973,0.49748311173310245,0.5375630289247697,0.5750415595611045,0.6125472011851498,0.6526275812907973,0.6927668430940657,0.7324225778789664,0.7685624473491302,0.8077752733781041,0.8479120909554279,0.887943654012497,0.9250005991749712,0.9629447512467808,1.0,0.9954628058684822,0.956945180396731,0.9196908618477595,0.8819541352526923,0.8419549431739888,0.8048389928207871,0.7669638976387649,0.72802025793103,0.6920717147481172,0.6562028707417369,0.6204273919424892,0.5840320037083331,0.5494439949339265,0.5162507589079404,0.4806115900167185,0.44489169958319263,0.41087804522216864,0.37986643985807267,0.36192714185617003,0.3457568350242374,0.3223704500987592,0.2961474449424587,0.26839035049364046,0.23869416768739793,0.21040289769685538,0.18232113714117093,0.1623457671523585,0.17092664512010847,0.1960691379790548,0.2252472931503513,0.25631710430373356,0.28815674772277755,0.30874173705799923,0.3047659095667419,0.2835588788627865,0.2699297377606511,0.2796718696567213,0.2882114952644579,0.2703947724437188,0.2554030769409874,0.245499710498701,0.23218808194229212,0.20179777268733978,0.16563938675194323,0.13575490313601035,0.14114758558618545,0.1750516263779256,0.21135581928049707,0.24992530181567263,0.28626040745531867,0.32609170220438044,0.3661488360894388,0.4034143214652729,0.4411384797493223,0.48123594962336447,0.5213661138666874,0.5600458032661824,0.59649547320725,0.6363805427757343,0.6765178826444869,0.7158441841912042,0.7519521851361906,0.7911979099148563,0.8125736820552381,0.7837449388436308,0.7438428590728543,0.7067951530329559,0.6688424403862492,0.6288633763092963,0.5919432840059835,0.5539547991142453,0.516977076387054,0.48054692742807026,0.44405490980928364,0.4043205556213164,0.36807704203030234,0.33419741011670834,0.299509559473114,0.26441256928490153,0.23022049506766973,0.20101543928856014,0.18331324672198857,0.16826445971058046,0.14905755131227028,0.12478830140124408,0.09629005006986902,0.06468785181524006,0.035852084021959274,0.012493542313699701,0.005256830655112066,0.026056990827697635,0.05489298398057607,0.0855273959409355,0.11564111904909757,0.1452974766456706,0.17169847785315462,0.1811496662163461,0.17178230817915785,0.17462076207886346,0.19650127736506873,0.2109856361903435,0.20300397646047352,0.20311570563984194,0.1984607913208687,0.1692231613641907,0.13425010552423122,0.11071630135773991,0.12447403093310105,0.15124883727273275,0.18560269312512767,0.22188735328313036,0.26174013558988707,0.3018632439752843,0.34028055364541754,0.3769291909703486,0.4168845002010686,0.4570244923617939,0.49716453992702947,0.5373045874922653,0.5774446350574995,0.6175846826227351,0.6576549388590045,0.6950253272365372,0.7326354301447526,0.7711840763094588,0.7825542865175943,0.748927279581753,0.7127647224951346,0.6737484035330985,0.6366712174554587,0.5987939528806661,0.5610290830279745,0.5241531190812201,0.488140635554019,0.45301093269205017,0.41787844988533096,0.3827993385228917,0.3483694517719049,0.31385625263843775,0.278668201125593,0.24317362291514777,0.22153984279687688,0.21670775812246268,0.20458971083557598,0.18068448180106755,0.1541340154955657,0.12741621834551453,0.11088403031693561,HB
0.06812372446152992,0.08199924348226395,0.10645359078286443,0.09367020639538126,0.08707178132827076,0.10469674104466187,0.1392721145882595,0.1745096928947888,0.2033204718910021,0.21006900443744636,0.21173145466358856,0.22263946175170768,0.23961342893044446,0.24828466087941747,0.24369130164489283,0.24072296106821278,0.2357273848210767,0.24354413433277855,0.25865294224882585,0.2648834907492531,0.23398269342944278,0.18653180491944832,0.1424245676082435,0.11136019113948448,0.12995438810821425,0.1764062056396608,0.22046406609724445,0.26917078725374954,0.31872497814651124,0.3682807541703178,0.4175794097305815,0.4623098416735488,0.5096824863450308,0.5592209539987315,0.6087768350086603,0.6583327160185893,0.7078885970285184,0.7574444780384469,0.8070003590483762,0.8565562400583054,0.9061121210682345,0.9556580212685909,1.0,0.9884430840268391,0.9401010551873862,0.890631676544574,0.8448153566222628,0.7986510512200101,0.7491618344295073,0.7000983719764563,0.655828740115807,0.6077708399590992,0.5582849390290184,0.5121223180558278,0.4663031856000467,0.41764501005503385,0.3736051185914605,0.3277324238983327,0.2853800476984377,0.24760709719325724,0.21809676656478072,0.1932143482248202,0.1683272697218704,0.14108705258337684,0.11160220910141916,0.0741893020327612,0.037319823972248756,0.007379451126453551,0.0,0.023647874412080827,0.06148952737104152,0.09127683724112734,0.12456917358598496,0.15731568299839427,0.19016776343426656,0.21849132574301688,0.22810036227738195,0.21961209579030305,0.2064343629385187,0.19909714745320828,0.19285534321867048,0.20531776713076078,0.22523969553067535,0.2346522327876478,0.20734072472784415,0.16112450384037535,0.1157236896177748,0.08244474647412592,0.09720984443267955,0.14139889229699676,0.1866371251056108,0.23603663490515958,0.28559251591508905,0.335148371077156,0.38452607981914244,0.42967851543288116,0.47656076039323236,0.5260884917673091,0.5756443727772377,0.6252002537871671,0.6747535507893473,0.7233120814238535,0.7673817004382512,0.8161120831781984,0.85726396431182,0.8372464977829265,0.7882919086641941,0.7387362047881404,0.6895122780281219,0.6449558559011909,0.5973393289767271,0.5480073688058197,0.5030811222209431,0.4559687399938458,0.40895245944984737,0.3640514540437124,0.3187708366706731,0.2769827956948542,0.24259427331708217,0.21682153091836398,0.1956658817507667,0.17161814236841277,0.14259495532874988,0.10991472593613161,0.07519912597716161,0.03991289535348019,0.025629322712214075,0.04528184629090648,0.07969992094984968,0.12021431045814446,0.15686492893645887,0.19155681113127587,0.22430193523773234,0.2486097625351672,0.26570966698609644,0.26562530725014566,0.2695325100374343,0.2693115273633476,0.2687619026390634,0.2861389845564529,0.29848025290315905,0.2816859202239316,0.2355822884451474,0.1913131969267442,0.15161014297235031,0.15643439124743053,0.1976049274478212,0.24353693305292168,0.29301875744971795,0.3425743890058951,0.3917513015673374,0.4362222298884636,0.48396828810712467,0.5335147333019373,0.5830706143118675,0.6326156520359191,0.6803591954813336,0.724819110754927,0.7740109149392082,0.8235665901640877,0.873120722689089,0.9204966823804971,0.9256103297485724,0.8839910346931504,0.8347058354409395,0.7851709357593529,0.737955919566449,0.6930914286721096,0.643794723325947,0.5969637424619504,0.5548517131133522,0.5158746221851013,0.4695918617316587,0.42486283892800614,0.3755896489336893,0.32873250196326265,0.2901104000058178,0.262483889869365,0.24311959749158152,0.22196180626531292,0.19388059828621074,0.16261575854453236,0.12797007509033198,0.09454251302506333,0.07183718522503968,0.08330307072596477,0.1134896179373669,0.14800389665205527,0.18381339049918333,0.22116704928732067,0.24924038173864738,0.2687584948557754,0.27207765235491255,0.26121929795779464,0.2541276887899081,0.24596363385900932,0.2522401163129323,0.2679635381008528,0.2745291903127104,0.24520652427398215,0.20116594032528512,0.15463021628914342,0.12556585451087543,0.1499385513519792,0.1983722536354383,0.24399289825985682,0.2903586092111362,0.339861204052763,0.38941708506269157,0.4389301467541419,0.4854497092684701,0.5309287349965331,0.580357179904983,0.6299130609149116,0.679468941924842,0.7290247940459839,0.7783915349139984,0.8234629241077925,0.8635696023131828,0.8481977063391909,0.8048174946505852,0.7558727064587135,0.7064347634532847,0.66087243274781,0.6144429278074338,0.5649420526518115,0.517108700418286,0.4726971150127909,0.4243997980544777,0.3804161872432469,0.33563191293288896,0.29500560660274255,0.25835854332792463,0.2330671207747389,0.21224090336401658,0.19019488469913648,0.1577112699747284,0.12251368432957832,0.08635940770296158,0.053504038598882864,0.03477369357309845,0.05217299550258525,0.08564645094206191,0.12119209342404125,0.15745077773188176,0.19167435698652457,0.22267132333163497,0.2437050386307268,0.24295077076066696,0.23473465924644643,0.23669410369710409,0.23754933563065295,0.24925134545312366,0.2668827286061942,0.2817325913446437,HB
