0,1,2,3,4,5,6,7,8,9,10,11,12,13,14,15,16,17,18,19,20,21,22,23,24,25,26,27,28,29,30,31,32,33,34,35,36,37,38,39,40,41,42,43,44,45,46,47,48,49,50,51,52,53,54,55,56,57,58,59,60,61,62,63,64,65,66,67,68,69,70,71,72,73,74,75,76,77,78,79,80,81,82,83,84,85,86,87,88,89,90,91,92,93,94,95,96,97,98,99,100,101,102,103,104,105,106,107,108,109,110,111,112,113,114,115,116,117,118,119,120,121,122,123,124,125,126,127,128,129,130,131,132,133,134,135,136,137,138,139,140,141,142,143,144,145,146,147,148,149,150,151,152,153,154,155,156,157,158,159,160,161,162,163,164,165,166,167,168,169,170,171,172,173,174,175,176,177,178,179,180,181,182,183,184,185,186,187,188,189,190,191,192,193,194,195,196,197,198,199,200,201,202,203,204,205,206,207,208,209,210,211,212,213,214,215,216,217,218,219,220,221,222,223,224,225,226,227,228,229,230,231,232,233,234,235,236,237,238,239,240,241,242,243,244,245,246,247,248,249,250,251,252,253,254,Target
0.9624930928515976,0.8339722145069659,0.8786947766933741,0.9831116058554212,0.8280168070384997,0.4780618124502496,0.8021648934185468,0.9581171073413894,0.849568743353011,0.8774891079962412,0.9559984050108359,0.759388455741381,0.5638887048525876,0.911916140331744,0.8763626315628879,0.9021481716250765,0.9103690720855193,0.9213362507018703,0.6325387113967926,0.8385164447128679,0.8627492631030693,0.8175293304946794,0.8562376573434187,0.9430915860069053,0.7160186014524408,0.7842914344819869,0.932983581130933,0.8074865617865992,0.8553850230163544,0.9399555098513359,0.802867978663133,0.6797598154869602,0.9502650390153133,0.8538011880669722,0.8746525700302732,0.9247169742223542,0.8911062705936279,0.6930805205479416,0.9148527242251456,0.8619346459208013,0.884191774211738,0.9410536011432982,0.876068130124511,0.7034179529975655,0.959581666559566,0.8832247491346965,0.878747636658973,0.8920336147580177,0.8948151207141206,0.7015325252494096,0.9324825821263183,0.8784068048336688,0.8870996437512988,0.8996434523248167,0.9258243889574482,0.6470037970327076,0.8441885551245358,0.9201424695125275,0.8896200747241758,0.8772355392320967,0.9670504984499557,0.780804389421436,0.5619345152504749,0.9140185893242936,0.8939059429733638,0.8958530734063002,0.9281160252115594,0.9343929335500991,0.6629096778207282,0.8914345346640815,0.9163744289457993,0.8801007956916715,0.8663643546007129,0.9428793593900135,0.7555793852903139,0.687243819843461,0.9340932436106926,0.8443806287699036,0.8538509034709187,0.8765179792037687,0.8375833477586163,0.55731012508539,0.8141276353002305,0.8223407239640659,0.8133377165035311,0.8359113535683378,0.9241939142395206,0.6598893793414464,0.7572899252731273,0.9125705453583779,0.8898723136988587,0.924358668184776,0.9999999999999998,0.7629418231845051,0.5716389838819673,0.9234669472049661,0.8747073273283676,0.8635257602667379,0.872194813992915,0.9431076795486015,0.6681586303330078,0.8115080728939958,0.8818848098104073,0.8371556456952598,0.874381188580194,0.9374360643994291,0.7372978902530101,0.7606100688663346,0.9462950288433236,0.8663547036293184,0.8455428529879956,0.5680251997444177,0.616385896417573,0.7923807659067019,0.7741189749938739,0.7564822344632531,0.2817438171280622,0.16176183047813586,0.653420343831324,0.8357219906492122,0.7762345691749857,0.7431105160856248,0.7851777095631713,0.5807265691777452,0.10874134233088095,0.3270913335852015,0.8016785048499917,0.8015014771362858,0.776146193843599,0.758228182666381,0.8266095534004638,0.4402776291289723,0.14124545279807021,0.5724358972432211,0.9065401526738304,0.8367000904678419,0.8146567984190887,0.8043176229788738,0.6861839511580234,0.20571665698731811,0.29143582349297215,0.7608929684642856,0.7727827243947012,0.7397003562515612,0.706087824127579,0.7349194569160538,0.332699649967817,0.05652276648577792,0.46743851606978715,0.8058362205409895,0.7529459115561683,0.7710786807910845,0.75883850869807,0.7301776069845076,0.25311087008635,0.24659275912698386,0.7337773715549432,0.8226871274382768,0.7823076757341196,0.7707571319725164,0.8123150020486063,0.45748311385109997,0.1204502607622715,0.5239993055585328,0.8757622376540761,0.8214993406451787,0.7947763991317036,0.8260457091552265,0.6847170413213537,0.1811059246234994,0.29180901430642914,0.7854229931140344,0.8328900505602423,0.8113978136376614,0.7733747848655614,0.7959477951753435,0.365948983245189,0.07421326956687202,0.5141481904200242,0.8543305960519605,0.782401986495701,0.7936093803135906,0.7945103315748658,0.6788846318780255,0.20063330559737969,0.20409650139507374,0.6905337672983483,0.8296741502572493,0.7842380464399736,0.7861509132054056,0.8173945210401115,0.40650085133657377,0.13225679205643726,0.5744583461787591,0.8694570836772606,0.7956915744616289,0.7741794210926174,0.8212540978514904,0.6263727264144212,0.1831394536846116,0.44007724075625054,0.8434716271931821,0.8028675517436608,0.7754654616953327,0.7891363589250213,0.7222481791787856,0.23660618594776794,0.3000177122733332,0.777138531505063,0.8192963442284695,0.767072287196557,0.7321818327237162,0.7700011838288197,0.32735700144072477,0.1652323132715272,0.6310896613106047,0.8387832649828433,0.7604230450398983,0.7062976763674316,0.7802850814583882,0.49554832973942986,0.07156633937013024,0.36017820082972407,0.8152115640010413,0.824402148834239,0.8108627285426488,0.7656282078687444,0.8098012013758418,0.34901262023006185,0.00710490402192443,0.37468195712418995,0.8201245800226478,0.8065524918876334,0.7970504869435524,0.7866050188362024,0.808599468060039,0.3107972528548353,0.0,0.441149697818376,0.8781302696533755,0.8307039961265958,0.7900321366699696,0.7631095376212316,0.8052754718436355,0.35746016358152,0.19544824804624672,0.6681302557300468,0.8514951192040587,0.7832847787610138,0.783563590798714,0.8579313659627947,0.9094936933964803,0.8800746600360123,0.5526006430660646,0.8030203702863548,HB
0.9995226893149189,0.891959790454723,0.7761530976478794,0.661421386481778,0.5470811534677249,0.4396456438211464,0.3571675534843441,0.30180022535653434,0.3000834817476307,0.34598881373291596,0.37239918523048615,0.37615973832109334,0.28732935875878335,0.17894187430994202,0.07979316200932662,0.06999955334039043,0.16821460118310377,0.2801464302833207,0.3989941513437493,0.5166987704182691,0.6351555535936821,0.7534315337135176,0.8709173177184428,0.9569673143050845,0.8959330616380379,0.7813945555087167,0.6657296149137804,0.550841126020829,0.4428161419581678,0.3585899458862127,0.2985950444302788,0.2886751952489253,0.32315630370822807,0.33879165508322834,0.3308336991200825,0.2354046614119602,0.12280308122594652,0.030782243904853346,0.06712999474904918,0.1792391416675425,0.296479430703489,0.41457394169341294,0.5324918996340398,0.6507271008226294,0.7707519282026096,0.8866223103519686,0.9577426394083801,0.8819040584901208,0.7740568940487378,0.6602672985866209,0.5457741385432862,0.4367838086852233,0.35744089321084765,0.3214811681884064,0.3399701168756592,0.38118273600307523,0.39652174138059854,0.3920390914059288,0.2988906310785729,0.18716442042529796,0.08178600025831928,0.07112282505899031,0.1739764733094527,0.291290577570318,0.4083961844478033,0.5274805350012264,0.6465016376009258,0.7638046566327417,0.8836032255292892,0.9794232019421396,0.9409046896272024,0.8276512046958935,0.7120557930491003,0.5978614394130377,0.4868353910825884,0.39570641918050237,0.33828186426692314,0.3269569456552523,0.3592661065326041,0.3252626253472593,0.2969399371284918,0.2968023836890162,0.20934156609240395,0.09729852811296047,0.0,0.023065149754450176,0.13410801286001178,0.25149358069285827,0.37088322263468826,0.4878233795956561,0.6076459453041627,0.7244926132064322,0.8412185226018913,0.8883094350859513,0.7968782632470752,0.6820413453997765,0.5666691183483965,0.45409861447437033,0.36214560260531475,0.2935227505177293,0.2526878836429886,0.2841910970303944,0.3411129016298507,0.36401648301699324,0.3309691773855474,0.2290975254421695,0.11565491544429307,0.021542357033501436,0.05258176703388079,0.16428733507168014,0.28264208602697577,0.3997835538558548,0.5184414946486815,0.635778069650802,0.7552539765294144,0.8720758544849732,0.9782893039783116,0.9597434482229834,0.8486207406790462,0.7317820367256711,0.6159841891379871,0.5026347695282711,0.4015668174237074,0.3334557783463978,0.2895713208815665,0.30787411336273035,0.3363282944434011,0.3554344662016424,0.35222403455315104,0.2557302897813199,0.14388383422970158,0.05451941462558679,0.09402318349247918,0.2065661391816508,0.32370036068628155,0.4418005823108783,0.560863580117476,0.678080922842035,0.79805176597319,0.9137315007498628,0.9789744852753837,0.9024525945202795,0.7934271074842758,0.6779978937508222,0.5636141494133549,0.45311095137097374,0.3630789903485007,0.30458892732397397,0.299364260098906,0.3424599224965385,0.36665053648461693,0.38405434110200914,0.3239323488411147,0.2153655109464137,0.10741237636687317,0.08161560163775239,0.179280510192873,0.2955915386788574,0.4150515217830441,0.5318589632160493,0.6518981586309904,0.7698364909181474,0.8876979973255394,0.9850821917293713,0.9475413320884227,0.8347923900142735,0.7192355378481761,0.6037378823472983,0.4902898783914352,0.3939775143548096,0.32437092677927976,0.28930686186995885,0.32168123075566585,0.35885603333908916,0.38055498734572196,0.3541988625563764,0.2510934859942869,0.13848968323391614,0.047952629894543464,0.08409120620243282,0.18885675576626154,0.30731837926974187,0.4242343984604185,0.5436464989885965,0.661072208138392,0.7797076605639266,0.8942123452732091,0.9345754382447378,0.8399126468002638,0.7238848040732668,0.6081952587306034,0.49551136721430783,0.39875064224345264,0.33239678507661125,0.30351524623642995,0.32222525988011014,0.32724317195866487,0.35821990074057236,0.3101102998923467,0.20185673824164507,0.09231133437729044,0.055321431592666226,0.14764859375647343,0.2644162137046078,0.3821315106125645,0.4997040727147137,0.618203400707567,0.7366736244081407,0.8542497563824705,0.9526612071675415,0.9118071932165734,0.7988114920657254,0.6829464451316078,0.5682979901404863,0.4609440670732627,0.3767815442993934,0.3155537275425327,0.29219898658674986,0.32877919979784803,0.347700965958114,0.35883983248068113,0.2819646434275401,0.1709750982405407,0.06499132216707493,0.052011628296683765,0.15462376334952382,0.27113402158011407,0.38854054948783684,0.5068642041269791,0.6257318198054587,0.7431067703799987,0.8577160233160248,0.8745711800234794,0.7698250656200138,0.6535629444512026,0.5386070162199383,0.43050333250943645,0.349538802823855,0.2981553745241314,0.31269416504081066,0.3650826269203073,0.3827579386073489,0.3840886573954891,0.3016666327131364,0.19001015436155755,0.08552415824281395,0.07877966526053687,0.18255868864418112,0.29990602706496144,0.41663246633368173,0.5365405383346427,0.6541956041659553,0.7728088507712443,0.8927349826208149,1.0,HB
0.029124418423237625,0.26563569092898653,0.5132066120378904,0.7499744228930889,0.8685511992005479,0.8017437035042286,0.7647010356580708,0.854184748509782,0.8604180782482785,0.8591669319315144,0.8551512753925157,0.6382180358340789,0.37817652110081135,0.12102592942186957,0.0,0.19163182115947763,0.4506905218809567,0.7024606948830179,0.8705341228007785,0.8414157340726114,0.7763802584422231,0.8552029656241165,0.8796717357511802,0.8489200521335452,0.88237878741839,0.7783833994992938,0.5345820165281235,0.2730457783673172,0.03556678415375092,0.051091405645104226,0.2939393445964985,0.5545357417382221,0.7927965843448675,0.8683089286116495,0.7851537963360757,0.7887203058882575,0.8679154437557556,0.8663658889299268,0.8568867483315309,0.8809035533651116,0.6844973337392046,0.42427614485635445,0.1642651875725093,0.002153467622040023,0.16154503108166107,0.4202992864120867,0.6757203705241054,0.8701854083118741,0.8851489882677307,0.6910306991116988,0.48225962629194874,0.5705228769684723,0.8217027982574674,0.9968538756131775,0.9290708153855012,0.885042634867221,0.8983949676695315,0.8490829450690465,0.8100005687203794,0.8905865670093469,0.8674526794041013,0.6645557713963973,0.5782317366066516,0.7881303742116035,0.9866060368045142,0.9383469642447004,0.889273204916841,0.9070891337177105,0.8676515750505114,0.8167374220049818,0.8932275996848262,0.8737775469186007,0.6676633204878578,0.49214611423609855,0.6391866894419959,0.8895578364366763,0.9939986986634479,0.9007684712720279,0.8927071379539817,0.8775332077184284,0.8011008865026458,0.8494222135334056,0.8900859961158702,0.7369468474800165,0.5109670104856545,0.5427631449390061,0.7873477445684499,0.9755400001113357,0.9194614157013905,0.8849409003574815,0.908211786083988,0.8559995574689986,0.8332473958441722,0.9070197863100691,0.8374294552581555,0.6088383661435766,0.48956174549554166,0.6853946708622117,0.9300393338872295,0.9912544972602713,0.8939383060589785,0.895392928073631,0.8915376001795015,0.8291529688014849,0.8510563812949951,0.9185206373224724,0.8284850790890137,0.6144428256562178,0.582941857394404,0.8147108382306136,1.0,0.9411857069214378,0.9019097256065693,0.9074114648020084,0.8606316453657825,0.8195986021303353,0.897617330430835,0.8626622524774887,0.6462626267549634,0.47657383834011846,0.6295772767189215,0.8812117007005666,0.999976293369518,0.9106076925344724,0.9000143216381593,0.889685090881507,0.8108697670957569,0.8368266954799406,0.9000157491486174,0.78850703216191,0.580120893333796,0.64084961548658,0.8827750485519834,0.9850101228033514,0.8915267833437055,0.8871478799282164,0.8857136881094294,0.8111180368695428,0.8555639041905064,0.8994397373688359,0.7509240970229671,0.5109528267867895,0.4659663584190523,0.6951410933628416,0.9376407564178459,0.9876063924154137,0.8932470042166152,0.8979672430878409,0.8828132920278117,0.8108997958533888,0.8469323218428176,0.8915210105039795,0.7490834837210418,0.5556613619828437,0.6636421452745264,0.908105446282981,0.9886020310765586,0.8967702168823533,0.9048881167581588,0.8973790126943557,0.8293728047899057,0.870324051953741,0.8928789582938217,0.7248949096428038,0.49883198041380317,0.5361412618298743,0.7664627455595238,0.9649558345101812,0.932218959005007,0.8731576936156273,0.8903722117619319,0.8457565829143725,0.8355632901643798,0.9088593157039511,0.8403096044652557,0.6241633003899544,0.5633459689967205,0.7858241043927191,0.9910963618883903,0.9499203768215072,0.8905839441294994,0.9015505193266407,0.8626915798448372,0.806191538746353,0.8802388706439956,0.8758020541188718,0.6782971377564222,0.4544883537455592,0.5074246646228998,0.7550316866325268,0.9686966464930244,0.9615570796357662,0.8915447463995263,0.8994621194093313,0.8565642793247057,0.8259035803761486,0.8955680048943948,0.835971500815459,0.6178881964028584,0.5534591756096587,0.7747790921066967,0.9817031783580088,0.9424183845327061,0.8828482826084528,0.8995419368770499,0.8845834795652489,0.868989750107668,0.8478250453755821,0.8687524762916955,0.6829963882020359,0.42873462454729516,0.20166437616434796,0.012333025364481692,0.07510386255701698,0.32458245319153106,0.5851719495173788,0.8130603197448729,0.8590554491286633,0.7855079159922442,0.8344310142550593,0.8756837589057659,0.8530649783577732,0.886164030028879,0.7447965035422516,0.48751891361544575,0.22639610385729347,0.015463630190418048,0.10309158228229875,0.3571136072892529,0.6154640598464243,0.8274196368304572,0.8595387877317184,0.7761557674922983,0.8161855351779046,0.8727482182271926,0.8592364899712289,0.8774991635332171,0.7901753458938587,0.5418150618341643,0.2805834529741341,0.04685155065521873,0.0745671764703594,0.3197992691219042,0.5796797471211613,0.8147406617724747,0.8760134679316313,0.7952518976631818,0.8185005821135279,0.8642633655492644,0.8360114877728566,0.866275294589083,0.7709930654167236,0.5274785153821587,0.2672822505987628,0.027937372296781143,HB
0.9001509112244441,0.507549427319004,0.6138015785921656,0.6413701071477644,0.6965451592199645,0.7505001971687666,0.8908012898347846,0.6173609855378241,0.4747386163830771,0.6151769039679389,0.6408877965266429,0.6396408262841542,0.7262291436981598,0.8749179905839239,0.6146126233579097,0.5513888435225887,0.6001609061932884,0.6695019239804239,0.6685397024106889,0.7741618417831002,0.9428756210583396,0.5905358967761798,0.518541547037344,0.5419962650180439,0.5772105405212307,0.637665810133248,0.8548579302762349,0.8193115565633213,0.46089899580010685,0.5958202049416361,0.5989364883172577,0.6909119978246163,0.7646738981688872,0.8920384707195901,0.8036140021898024,0.41031913164777856,0.5831687372678809,0.5437469020017491,0.6413728167561945,0.6827441174976763,0.8469386630030409,0.934979112182537,0.5366076630346155,0.58376788509875,0.6187966577889437,0.6876477699052186,0.6938913288297586,0.8541983296822144,0.9445781338295334,0.5343106828150412,0.5925801740681147,0.5944974117219946,0.6186283552535803,0.6619145603827576,0.8142603620071387,0.6602855318757712,0.35415099840072783,0.5421600693684694,0.5387086226841411,0.5971724911738592,0.7047147765997177,0.9237565412744411,0.7593963904101726,0.5159503403248971,0.6217422210114274,0.6760639057874858,0.6806804679799352,0.7679796564484798,0.9747661976981037,0.7213654195732155,0.5240672436219069,0.5976464637685688,0.6137729407856602,0.6352925445714741,0.7606511538623997,0.8885318127576529,0.4680795202406902,0.4584116550735453,0.5874052980443458,0.6345477648173687,0.6570302536081127,0.7857272595973417,0.9034575670168896,0.4798804048456715,0.45579892070994465,0.5954333636293632,0.6309718164676814,0.6641782652690658,0.8077161898979817,0.9841344365807017,0.6060154578145991,0.5765648487147088,0.6110853571454633,0.6856791022509239,0.6873412319320356,0.8125982482126834,0.8934138312642299,0.45536637550377823,0.45813870541089874,0.528014756659464,0.5961355130433106,0.6668634172795846,0.8029617869877972,0.795964163099818,0.38868336861119235,0.5407866755278168,0.580310425449601,0.6648129261802118,0.7104787998883457,0.8712217202735271,1.0000000000000002,0.608100577771497,0.6277286362701207,0.6194841732880791,0.682206128501966,0.7145130380198685,0.872592525805781,0.8020697873682858,0.4614909482817746,0.5622172253172197,0.4699778125042282,0.21727516867298124,0.21191297884659255,0.32351210347699433,0.2797656659508798,0.1998959285130184,0.6772803840922623,0.6772272297200967,0.5297586895516428,0.5339630097866175,0.4361880016225952,0.40119775235898847,0.18401705093843868,0.6070632494586568,0.7083342932769476,0.5993854608805076,0.5460104181525953,0.4628509302053134,0.395612358994051,0.026591399317256625,0.3257527889514702,0.7025734506830144,0.6168703297937583,0.5205061407922511,0.4319388474258907,0.3945539810069676,0.09136797620647052,0.41739622665963005,0.7005628123887264,0.592824316132271,0.5680034774629055,0.4718803676942429,0.38242209374167513,0.2950341152060536,0.6924265630989133,0.6439222707424064,0.5331673891977544,0.5155429049946745,0.44753960608110854,0.20380637552736225,0.17404581893164783,0.6381693577140821,0.6374508434694357,0.5531990058306502,0.4982725990129693,0.4739300386607803,0.1763057812801827,0.24240465074516604,0.656680511169353,0.5954950514615527,0.5243028011640656,0.4616039118716244,0.42729721452822633,0.1819486880910326,0.45860072055522605,0.7085110968851291,0.583384878828962,0.564709464037721,0.5069070174828461,0.4524335631157046,0.21081789099906745,0.5894554185278673,0.6916987587285985,0.5136242682379313,0.47618569322490933,0.4219711359897642,0.2771427275914651,0.0,0.4487666647478983,0.631427289940848,0.5269130256507955,0.5174917437349273,0.4561039199042545,0.3955256453596785,0.15513049446963656,0.5560127396825407,0.6729592883049407,0.5495522339863494,0.5320807686025024,0.43634624420126067,0.4476814018813864,0.19967493345945808,0.5065869725539132,0.7432228306576303,0.5888614285820235,0.5495546391008317,0.44312355348653454,0.4233600362810914,0.10279279675978881,0.3977042424875512,0.7458673068434323,0.6622262200555162,0.591476828901784,0.4841881979201752,0.42588620293804014,0.14493681340650233,0.4112229441638984,0.6673226684401745,0.5173599127958857,0.48501181094772616,0.41357377517467353,0.34731748795726003,0.13053331213005737,0.5136668316405679,0.6808683769703421,0.5758059300773952,0.5630348893320976,0.48186399996406215,0.4385177338901036,0.08721619463237018,0.30058506678773234,0.6699599465285495,0.5771487466224292,0.5312593645255788,0.5129926927895558,0.48985344207399284,0.14226276113939496,0.3658538903898887,0.7324639570010161,0.642261638147472,0.5720911754582503,0.5166067281773341,0.4779329546230555,0.24910113408510592,0.48379398050769207,0.7531731907976214,0.6106027912006746,0.5562195235488783,0.5335244801899333,0.5677269204474051,0.6402647942863997,0.6657085818269441,0.6925747575198871,0.7587934749966021,0.975152250849926,HB
0.9999999999999999,0.9428664150955613,0.9295538508722064,0.9341143337885062,0.8779753389843487,0.5505077743410035,0.7241503457431789,0.9759788193158462,0.9303936630456918,0.9426370721094263,0.9412961962928416,0.942961573546207,0.6050789012535459,0.6484096920920416,0.9805588722380437,0.9569920106528805,0.9518969352149454,0.8965657919096265,0.9480024496882516,0.7669136043639401,0.6484967701065957,0.9484659618320407,0.928344361322535,0.9326527649279311,0.9126038512257221,0.978759909306595,0.7527417623863749,0.6872446117432737,0.985114466140688,0.9476079711610726,0.9547143832522514,0.8933799347285439,0.9399551713212134,0.7670290705518746,0.5506103437298863,0.8645976648517831,0.9342985644744785,0.9171688458424835,0.9150463409148203,0.9709924626972087,0.8925554606553298,0.6166899382467083,0.8729306947852223,0.9829995217362563,0.9503636731906443,0.903343783324651,0.8023950494984903,0.6221799048846414,0.6398927297048135,0.6686461997593408,0.872510734949652,0.8821749979102756,0.9160552165574737,0.627713511728495,0.18437060237557323,0.2518297726067865,0.7097431148456191,0.9386382009297719,0.8652456585273146,0.8765447331671076,0.8456567804343579,0.7840120755332706,0.3468494658004754,0.07435744958294999,0.4183960902089491,0.8197259193682332,0.8513488665774501,0.8738736301464592,0.8882238221277864,0.9146968112686163,0.7093827958065321,0.2523648663551269,0.20087024971563128,0.6492722226925368,0.9155849138938593,0.8574699291639248,0.8867030126677001,0.8672918689032955,0.7935317624561012,0.35288253944907255,0.08334324310567531,0.4292378603041841,0.8387189914419703,0.8533649260614594,0.8755384730477923,0.8911102022133653,0.9169567482919615,0.6522917134410208,0.20138336940953427,0.2533151560325527,0.7161910685531726,0.9253126146814562,0.8718725368275303,0.8951260656484413,0.8869200219479564,0.7612285308659555,0.29078090458758277,0.0,0.3414099398297453,0.7925098409330905,0.878514419317132,0.8754256275777147,0.8899536909030065,0.9134353171872812,0.7618222756430576,0.3065919596956447,0.2114295840080892,0.6459982805544174,0.9204870422604793,0.876234604078226,0.8970810274517406,0.8861238281610119,0.8140833054429807,0.3646886292796444,0.04198515401884162,0.35240810283577584,0.7958822233240009,0.8920932262721907,0.8673637019694739,0.875438031322111,0.8858578896865875,0.7241977829875109,0.2735774883335772,0.23851753224268035,0.681764106045503,0.8946311443656599,0.8611198481826331,0.8982532544001735,0.8965684408446358,0.8053743879365168,0.3522771000098369,0.15495086800124636,0.5411662651816177,0.8972696259703526,0.8788867526445528,0.897233990866945,0.8721770030564512,0.8787133066065985,0.502882988179545,0.0838757458204269,0.2483787627729367,0.708677183313687,0.8995061913329382,0.8457245163629182,0.8860824857140263,0.8796513422319124,0.7774566806297737,0.33489009339153386,0.18082322219724423,0.5890905274319921,0.8985694998994392,0.8653962283062627,0.905300674778103,0.8901718099955537,0.8636598565167407,0.4552727109847431,0.10250156018026979,0.3629099803783752,0.7859394624955015,0.8972643499175298,0.8847067757639323,0.8870658354601174,0.8955014689917679,0.6625849485101726,0.18191469684463812,0.07413093479932231,0.5004281697153078,0.8629798898390107,0.849364740278128,0.87954463576553,0.8751070680668432,0.9018036707638134,0.6160029129395187,0.20173718787058526,0.36116123218227514,0.805434071240103,0.910837620532526,0.8987359825474671,0.9029626137798491,0.908874623037122,0.6563276648232553,0.19102403685948477,0.1731706589079658,0.6303031427089442,0.9064836641732718,0.8734231950884029,0.9397886676641071,0.9244987001055748,0.9668684489648492,0.7319852224707272,0.6026168613566166,0.9322171811291552,0.962218122098485,0.9597083631127109,0.9341776199939625,0.980585959469091,0.7477802466401925,0.6188380422765719,0.9370761646119362,0.9408411326552758,0.942987185114127,0.9032632632221761,0.9477717407408103,0.7637951322557227,0.5045337801776114,0.8190291271136753,0.9723775970009211,0.9426749262332154,0.9343144309224781,0.9548176473181739,0.8557253670061665,0.4904095834623222,0.6477031643231194,0.9706283548606666,0.9447353351836022,0.9454747248126597,0.9292088557259658,0.9426553641463206,0.6313586609398621,0.6725274412871883,0.9520649880375022,0.9285291127671075,0.9331947290580628,0.9027864821294275,0.9428109863468265,0.6490630074339306,0.6506912550502767,0.9648213126989885,0.9334476889228972,0.9439170940002833,0.9238425761384931,0.9726677942028729,0.7357982075736001,0.7935441054435869,0.9905637734402463,0.939201347997849,0.936879858878292,0.9224668727933804,0.9337220421195694,0.7239280581351527,0.920647268146663,0.9383775339463757,0.9347109503202019,0.9079694636281254,0.9632108631786157,0.7635689997665928,0.5901051190330523,0.9148263085791671,0.9515999504074474,0.9473768974400191,0.9248297998014178,0.9809700359229775,0.7536671467473915,0.5269666173930919,0.8583512769505922,HB
0.8713379263407133,0.6495050114205776,0.8360885942220981,0.7228020959360306,0.6139376825287719,0.3640335145145954,0.34269485656707244,0.35984662945161827,0.590145263879962,0.6844199010374423,0.6405780579705713,0.2148303010664554,0.4520872976666084,0.8782631279125066,0.7731052105274683,0.7307936316351202,0.6807587213496065,0.657563406345717,0.251000387940977,0.29823297547732186,0.7646612569802251,0.6890386053693536,0.5306922368483977,0.5494623828654106,0.5519843693945301,0.1878700846173489,0.0,0.4740263978748933,0.5811083263746017,0.44777805725088293,0.5838328604087659,0.6412729798473669,0.5088986583708064,0.10916600047413616,0.3901621233761221,0.7393104788177582,0.6022523894026826,0.5942842647572637,0.6407242263272026,0.45685457316404454,0.10301438880480229,0.48344913694168046,0.7643635740234604,0.5815828537273038,0.5686918858216845,0.6428612013430255,0.39819842044081155,0.13198073053553117,0.5653543350774113,0.7030273933457669,0.513346583377134,0.5349644833149301,0.5822081290206178,0.2568336461097307,0.04402811385722116,0.5098124035505003,0.6388785485023363,0.4839521698415443,0.5078877848698651,0.5883721556434514,0.25358638764852626,0.021046549957491667,0.4877465412031068,0.6646161826560546,0.5170835201780866,0.5587753144804053,0.6346056023313544,0.3534945436959249,0.10432487803712265,0.5623781551867411,0.7454889600162702,0.5953355835422578,0.6389908373113109,0.6729922527015642,0.2948458818988864,0.23912781576415232,0.7076867424553679,0.7158514003849954,0.6115373289033685,0.6531071938772597,0.6555883143744288,0.2633146107293114,0.44418502594505416,0.7742221096882884,0.6069620593791061,0.5933143732068749,0.6352690182419141,0.48789490216855014,0.13923096980352834,0.5017719400474538,0.7271123155107848,0.5407376396164874,0.5601068869837376,0.6151493336115632,0.39282159031130215,0.034587235942309835,0.41776891242453473,0.7045023844579068,0.5447475599311842,0.5312110436497772,0.5658414744848812,0.39365428975479855,0.01590874993981717,0.36248722191951366,0.6612185535866637,0.5354653675643097,0.5619540421526141,0.6420758022050037,0.3814021472897031,0.18376696487461497,0.6315589400895385,0.7217565930279719,0.638101303815527,0.6705280338099306,0.6694779856552173,0.2645400594503864,0.30653492522109027,0.7339371686033298,0.6287565255509906,0.5177782744843566,0.5655580145573023,0.5640867333785344,0.15803166769379384,0.25477539490129786,0.6802282175646519,0.6028388358248928,0.5869482239428643,0.6430510366855635,0.6071016828709752,0.16843083075084975,0.2848015078987094,0.7047142492860872,0.6000670184244434,0.5666557336347264,0.6291472968918945,0.6706202677559963,0.2508221941074027,0.16257501511853434,0.6520724517841121,0.7643271636785871,0.6392893482151283,0.6488855880911937,0.6659361111897948,0.32794050104423467,0.14027303597429008,0.6271055011183224,0.7830365011853788,0.6573343654483363,0.7592834442016134,0.7281382989920757,0.7186478690383133,0.8837966680166243,0.814172318478916,0.7625458481581704,0.7244584299012298,0.6573747205051814,0.6574877347768615,0.8462272650850104,0.6526730538771861,0.695702357253204,0.7362674115691712,0.6801554192786685,0.6514008138063965,0.8226296985896144,0.6294986177867703,0.6577699069500664,0.6592066081615171,0.617181534901772,0.6263788680460232,0.8679892282312676,0.7630132575797666,0.6724234356259682,0.7707267327431697,0.7238454440536148,0.7386658894830516,0.879093841169867,0.7276024852990022,0.7446607309526077,0.6394579766940158,0.6087910191492496,0.7649607153787923,0.6446116954562664,0.5950174056458182,0.6439835092297377,0.6022029946809915,0.6768942713406612,0.8422623592223901,0.5990523972623227,0.6667233122881429,0.6634699883630393,0.621240470068962,0.6969016267181274,0.8656321239964202,0.65134159838579,0.7446768799150438,0.6964971835249456,0.6581598766505101,0.7881583447500933,0.8848707841347683,0.7369176141098868,0.787212717280745,0.7052215481882798,0.7272690881879706,0.9066126349501891,0.7553840399696987,0.7932800710999157,0.7224868387871972,0.6773639988230375,0.8315327897853366,0.7904751336490061,0.7478150339269052,0.6668023782110348,0.6082934911566416,0.7210904037135821,0.7269121282227233,0.4774068192303915,0.6800282431847837,0.6000997591765018,0.5612226991896201,0.708703359187959,0.7520730726626852,0.5404618649883537,0.6935042666717195,0.6175459674277486,0.5885521587393909,0.7802587026793766,0.8094208621344514,0.7370411553768996,0.6855783485765665,0.6362887911215915,0.7645371595625525,0.8661924076462288,0.6648240652825905,0.7380903484760724,0.6775455982657037,0.653962237989014,0.8365408419473919,0.7974746167230082,0.7255155925743233,0.7091864818527303,0.660372729818117,0.5364021000831707,0.6892698246993272,0.6231547089965319,0.5935081054679447,0.6432580690875789,0.6248214871779056,0.6606729837769205,0.9042883280917005,0.7872391636567995,0.7379148339480739,0.7698516666616506,0.8138123591587412,0.8061227180416386,1.0000000000000002,HB
1.0000000000000002,0.8563884440250178,0.8427106537605036,0.6567233971182864,0.30115470008028056,0.6106279360527294,0.8436108701280671,0.7378121340384809,0.7779915486206448,0.6094657801803336,0.275244540239316,0.6534038837307234,0.8899064113642539,0.7655372404655088,0.7961610653965125,0.573698281023715,0.2736008750191259,0.6621717920280952,0.9402092924339189,0.5492170605646065,0.11049192713000155,0.4209981594728658,0.695163718909005,0.6633327579881463,0.7336900223045675,0.609537150226166,0.11843264214118876,0.3370119248401655,0.663465112561773,0.6619506542157294,0.7118037962371486,0.5999954184317862,0.13096205220254165,0.3697711526125358,0.6836743172183841,0.774960894687226,0.7392451509455611,0.8312416703252576,0.3812801208913996,0.29377385894281427,0.6986820062906729,0.7894735600235163,0.6918533176979367,0.8189779981993401,0.47783231365415824,0.0938411854792982,0.44304893574948045,0.6854347287081841,0.6553942313848664,0.7040373195522098,0.5156734625914947,0.07945397495386364,0.39342040333243244,0.7100525202649817,0.7638461532245475,0.7083842464190051,0.7869573421211358,0.30912040840995947,0.22126541933348975,0.6678713209034843,0.7860308101515312,0.6297211121733686,0.6802301479186419,0.38325306117292857,0.03450157109335583,0.4393099285821671,0.7402297622812222,0.729739782768293,0.7550198330399425,0.6198342531537022,0.12511441919937294,0.33943809885770215,0.6909191503712766,0.779372567377637,0.763509535003249,0.5932805921582613,0.10156661852618876,0.3274187854496289,0.7160390776471066,0.8525797299574445,0.770803288506021,0.8403453667245124,0.400872408260293,0.16429822865006205,0.5666512660485414,0.6715256486167063,0.5642872555282905,0.6581172249058425,0.3471059830184957,0.03723409844123382,0.4537508623783031,0.6971025683389922,0.6046856125359963,0.6340727169452103,0.4578766117132729,0.03449655154000131,0.3411225594117788,0.6937043618348009,0.6920637399070204,0.7179781811930368,0.581713760425205,0.14127654046428306,0.431927451803064,0.7146816770919167,0.7209485915955611,0.7917153221821167,0.6203528074471885,0.15410566236883372,0.397376714863517,0.7105513221243187,0.6502180971340501,0.6254906100722695,0.5339068593502982,0.03087673666383761,0.21126951719106368,0.6189420597675446,0.6727972316182822,0.6514011078831448,0.6992101710520482,0.22112866610587267,0.23763266785768855,0.6564991277155736,0.7336818838886925,0.6207345851798081,0.666163998732759,0.21171047721588487,0.169308801499082,0.6190287611913925,0.827000719630407,0.7703552959795894,0.8217027793492175,0.4359564279149517,0.13155126407770767,0.5464414029943983,0.7895815476362287,0.7426668325905006,0.7216728432002346,0.4711348320647921,0.0,0.25473731219965523,0.629794957357787,0.6650921384999984,0.6330688560769746,0.6680516280378022,0.17123506728603877,0.12694999362405346,0.581719308052074,0.6796174035776874,0.2993832374109353,0.31154534055548067,0.7762809607971202,0.7532590119040579,0.7598901428259477,0.7466572704740437,0.44632504037843135,0.1901693039172927,0.6632116035276934,0.8420774310470012,0.8320670353038382,0.8843652281184398,0.7134324912168275,0.3484820885993518,0.6542139687946096,0.9463753556789276,0.885662940145387,0.8970010435395441,0.6936202928486102,0.2899543641955036,0.4823227902247649,0.8192672956353573,0.7147287330585319,0.8350756610085026,0.761953056858178,0.3978158106643741,0.4658260733554822,0.8424794113051928,0.7306016467630625,0.7908927947925528,0.6860817598751521,0.2882070036223705,0.3078812945892826,0.7784871074080464,0.743223760981498,0.7731325358227787,0.7969572587133078,0.4868224494229778,0.35420556202042763,0.8255440131624152,0.8620330261690758,0.8366710811426452,0.8062822817285402,0.5402011303104393,0.29687895958286536,0.7423833368613291,0.8104806515624474,0.8047119885135994,0.7836879500975387,0.4803206522993724,0.25061925631853676,0.66948323394674,0.6961364587248327,0.7577547267879583,0.7546251628627447,0.40765993420271696,0.238336771287744,0.7085344174730828,0.7359822768200261,0.7037636224338011,0.7626182016623868,0.5735715419132099,0.31107100141747357,0.7691598925871401,0.9517990935592018,0.9034554681184195,0.9209090145590813,0.6997223440951383,0.2998803040397424,0.5625363120057114,0.894033923325287,0.8564611086617198,0.8506206001490846,0.661092265505246,0.2914887701503732,0.5876869905110069,0.9078043425361997,0.799609921372961,0.8708753033702583,0.7079388347301256,0.2932060056399479,0.47763021912112413,0.8058095088285728,0.7310297578456042,0.878263990354603,0.8170994412177095,0.43838554234823834,0.528999031305202,0.9342535322829442,0.8517576152056849,0.8972144652341354,0.7953112736523138,0.4444619907317999,0.41765403911721344,0.848421255323015,0.7736787902185369,0.7947098936216388,0.7692299296867546,0.49022245007696497,0.3437927190082062,0.8358556537051027,0.8834854710824638,0.8471009085106964,0.9085755157940716,0.7365054632441701,0.4014701606727902,0.7511089157526654,HB
0.887573334677505,0.7912378256194224,0.7911558431646162,0.7175514895164445,0.6899371180297922,0.7499223860487922,0.7549255143715343,0.4394826016260991,0.5939143605959809,0.5074980508810842,0.6187842013719282,0.7451174797690503,0.8535883203114816,0.8462454729915128,0.6768908990349569,0.8172572105111389,0.6896726566532596,0.7448781924984957,0.7206853938725439,0.8440121408547689,0.6654401120369062,0.617501268149935,0.6743151353462147,0.6632063823189536,0.6864109422754017,0.8133162544203936,0.90692373933899,0.6491344102747663,0.7635618750075932,0.6587657830941542,0.702268930049776,0.7332593871282738,0.8564251426009601,0.7118024011841371,0.6915562248146752,0.7232157476405114,0.6651157869050124,0.6676583128808788,0.7858113068648414,0.7587897578362663,0.6430797237982508,0.7549874910964518,0.6889781349866664,0.7141498164204099,0.7390432986588875,0.8215286861023747,0.5554270229488343,0.6171627951149485,0.47342471429022037,0.5879403218998216,0.8306411303375136,0.9338631935712853,0.9612170814417675,0.7325070330468124,0.8891660203378429,0.7722944664764815,0.7995080122127369,0.7851362309857914,0.9073079305671232,0.7978356488446319,0.7364165077509908,0.7208228872193634,0.7404972166932375,0.7861025845052385,0.8991430123185018,1.0,0.7520793803814598,0.865486659223663,0.732068310650781,0.7091061427892726,0.6828819038280312,0.8238198461589827,0.7315957100786803,0.5595271319619974,0.7061332766870883,0.6094396634562953,0.6422799419625749,0.6555416488476853,0.7923794654366847,0.5643281710350259,0.6129608437423668,0.6405199833464423,0.6141016008564368,0.6233844941873943,0.7225050845081453,0.8159987387377878,0.6310086251681954,0.7435512715087058,0.6128006433600519,0.7000548061942604,0.7260623946126419,0.8916261475095171,0.807704523500123,0.6905153101662029,0.8078422411670068,0.7500150567664581,0.8189995692430903,0.878078246731461,0.992861953081114,0.7223073304508989,0.7885751806361121,0.8006106831613886,0.7449268601189978,0.7352267666182644,0.8032162728987644,0.8038913325169403,0.6098323246504482,0.7671641974176286,0.7135105325432294,0.8049808344814413,0.8399325256074408,0.9566500379169689,0.7324752701549126,0.660038689397429,0.6905226910103286,0.6791942118215317,0.6758887586296836,0.692755601864568,0.652198570372831,0.5133351398265118,0.575791069420994,0.5130057709432161,0.5232418116993087,0.16400922449183764,0.3627150178891352,0.769854498013693,0.7079778713644411,0.6654110631253682,0.5871796482578748,0.6084563413147057,0.4560249219203607,0.17852497568512415,0.5788359976565713,0.6473060088312725,0.5959675114557208,0.6095008892753002,0.656912840165917,0.6183595141100349,0.26328343059021986,0.5947914422564899,0.8087893493469145,0.6914284413905243,0.6632004562357503,0.5821643326176593,0.6723678770055614,0.2945720294315417,0.22388826701281728,0.6935819233610201,0.6813864741925144,0.5686745004141529,0.511797953986505,0.5354638022162095,0.4891498317263645,0.06614755312171416,0.33727380403225826,0.612302718657824,0.5023820141928801,0.502904860426125,0.44097984289252246,0.5340805926281567,0.24010011139442922,0.0,0.47452916232574394,0.5773051900695734,0.4799969140082365,0.5062958080245847,0.47681824431814235,0.5220871038002239,0.1296291591318819,0.3449912943636835,0.6651622883554218,0.551702298041064,0.5596767659103885,0.5630183112106271,0.7243792081356242,0.4421928180964607,0.23954974714315203,0.7030037153817208,0.7517412000341599,0.6447135932341297,0.5909209291085831,0.576380189225632,0.5324885624311824,0.13205894673109375,0.44322796243602847,0.719042831439801,0.6404920625050008,0.6663470637930891,0.6196730416625624,0.7257829043816044,0.3525579875486531,0.39671690801284276,0.8192294711136086,0.7810349881890133,0.6812183682205921,0.43403119770897014,0.3582367302652254,0.45428491078503175,0.061810120118144685,0.19818142096919678,0.6123148847269202,0.5766041308842782,0.581520938834184,0.5277011352102448,0.6084876167394393,0.3387213548552679,0.16444660831470914,0.6051962862867653,0.6177199291854136,0.5316708353658992,0.5095903397697947,0.5744565191474371,0.466896799682361,0.12320039497778534,0.5074326573173433,0.664546494680955,0.5712222360956982,0.5433627218498853,0.5569354610451493,0.5324247929038455,0.12484705190030976,0.374835176463411,0.6937747232170008,0.5749575731105052,0.5602045326647369,0.481382212013973,0.5618002511246338,0.2518485499182037,0.18492261225658924,0.6414422462092326,0.6351062496299367,0.5970967039003408,0.5537410836307948,0.6359453411900544,0.4687523765262016,0.2415502484871479,0.6745447266414861,0.7094576828041528,0.6002734906688252,0.4734458392647585,0.3796161846604815,0.415185851905314,0.028301484143142375,0.25007319460216726,0.6231484076678111,0.5567428183612453,0.5822612864974026,0.5929771373117001,0.6960983109310441,0.3184315038073211,0.24405599207176554,0.7138240828288525,0.7619426241947878,0.8021217550729478,0.9784211717959312,HB
0.9941515674782935,0.947275512373714,1.0,0.9121303114275576,0.8890193190450439,0.780783842090595,0.43654684742757244,0.5439108516925095,0.8590758311067856,0.8704687099123978,0.848334154959056,0.7970653121340485,0.6952752065494747,0.7213178074930879,0.4446871615895014,0.27485140236789307,0.6188387872793009,0.8655461759643812,0.8712610923203323,0.90832787533376,0.8621851483977534,0.8148515179446256,0.860217368651724,0.5696792706726317,0.3662115890825277,0.6849710452383186,0.9308576086213123,0.8706241832093613,0.8690834555119655,0.8131263787700427,0.807464166923709,0.8061276810805507,0.47963665578252757,0.46459733117946,0.8260882139587127,0.9205224710803648,0.8723335720069303,0.8683261491244509,0.7951898508476198,0.8489555165558367,0.6291304242934739,0.3607780279188819,0.6230245197101862,0.9225958543978423,0.9103518553655057,0.8884649938864291,0.8458796443014853,0.800916890089415,0.8104526916386718,0.5170153099518424,0.5452575118250311,0.8691422860366098,0.89825811565868,0.88962034289921,0.8807310314068126,0.834322889863633,0.8427295536582748,0.547963764843256,0.359848687526088,0.689236242868053,0.9329007122974362,0.8839886815293745,0.8827561532387247,0.7948995695752374,0.7913827883731028,0.6907042344690113,0.32448262718853904,0.37073321347230115,0.768218621504339,0.9479652404747232,0.9258315666054879,0.942264886153626,0.8516658926153271,0.8455063387051107,0.6465296598895465,0.38625252111787356,0.6614264197505526,0.9293059869686957,0.8770148630562029,0.8501797700502891,0.8090668797343801,0.7953182189477457,0.8326410605794612,0.5297014208596871,0.48820669207757894,0.8346932797930371,0.9351845477880503,0.8571780453678703,0.8411531531587491,0.7622367491506266,0.7910305597535556,0.57673070144897,0.2553572059405633,0.4605358648585658,0.8268548864734697,0.891798290488585,0.8797355745486872,0.864577887972469,0.8160677365873275,0.8086090714860448,0.48874527772619336,0.06506687555778823,0.01827165965269406,0.40898236109451513,0.7142315446897942,0.7160606267928338,0.7894290793792955,0.7927446629653461,0.8552824202915388,0.7218093615962524,0.3061999949004778,0.0937331427480903,0.41102294362351355,0.7390413603718307,0.7317974859005043,0.7743325559399559,0.8003653356465252,0.8193473577026531,0.8002194604331223,0.4364483912390975,0.0819372549935461,0.20751930219443793,0.6103420848891279,0.7958794468155668,0.8157605559525114,0.9015638045618888,0.8673265270168555,0.878507803979174,0.615723244775316,0.18258359086678677,0.011736653430376998,0.35962979546311136,0.7087957829657039,0.7203952384362662,0.7895175849874934,0.825950353548923,0.8449951279078527,0.7823600674771256,0.394525972109272,0.08969496835548352,0.32825828957329106,0.7148767736521036,0.7867192798021978,0.8271046568493909,0.8498114708535711,0.8367120948596392,0.7673841829691741,0.3845817183551137,0.056312031319870504,0.26347647722234124,0.6612370724055752,0.7564033213414698,0.7726328298876244,0.8419035906529924,0.8272381772657778,0.8426692104302598,0.5167091297168191,0.124071512456703,0.1962159077059623,0.6013646112501039,0.7773317933025696,0.7566442473102069,0.8395101337948876,0.8087222345984448,0.8544009974686497,0.6100666783418449,0.18937853010702588,0.10809135111453272,0.48930708637253795,0.7653696263963647,0.733757617101797,0.8096846247559575,0.8001326202966126,0.8483470053931665,0.7559350579809694,0.3521219132997313,0.0869908443936912,0.3683829218963586,0.7398417662851979,0.7722704625329717,0.8076570476041935,0.8554392759733491,0.8120566672694758,0.7582001893904915,0.4067008426965306,0.0,0.025645146860860835,0.41900575366400394,0.6689063017526311,0.6566877508589517,0.7799306783489732,0.780876374117248,0.8180755665127608,0.6309189463795155,0.21434575776672804,0.09421299781872894,0.46368332560662306,0.7940559433153112,0.8295497915607535,0.9369671109976676,0.9111985664716564,0.9043240006749727,0.7909189053412438,0.3824046843192981,0.13858618630558484,0.4367060155688709,0.7484375395781104,0.7186687027318359,0.7907110325778866,0.8247513331988092,0.846437155243323,0.7872183074559229,0.4009853027950916,0.11198520072885598,0.3686443207941035,0.7410935599448834,0.7842019147407375,0.8237337745562556,0.8639141702251043,0.8562992860079601,0.8365321464529127,0.48026512269478383,0.10552742009597593,0.22855135161848472,0.6350019476318853,0.7805071737891947,0.752967900252252,0.8494664698659025,0.8287074665662315,0.904473869253787,0.8842622703768546,0.8988750224342279,0.8244356173210134,0.8275986134769138,0.8163960649088826,0.49958280306642733,0.5451248347004807,0.8915782552763203,0.9363203369712665,0.9029425659260932,0.8992002777611992,0.8249976285533525,0.8739975539789788,0.6537991798561547,0.41202946893046266,0.7012102280202552,0.9455266166640748,0.887391436092873,0.8792767979126894,0.8050626039928412,0.7921801878144958,0.8491421974845725,0.5623495316632667,0.46789936073314764,0.8182376401699045,HB
0.8836574830434296,0.4967195062322207,0.30139341458500346,0.523788961345105,0.6982002100556584,0.5217336586058547,0.5736267394604262,0.7010367483246918,0.7317484939108483,0.7234603897356089,0.6505048539205476,0.8321212959806115,0.8696785772896933,0.6004941916524338,0.7459678566265564,0.8258162346527416,0.7610823278247028,0.6888210932651977,0.619777885229204,0.7894128119189983,0.8150354379095381,0.6092030996803599,0.767998302350483,0.7479357481594999,0.7329556509572783,0.6305070529824468,0.6288055809872934,0.8046790417752214,0.7241907176371745,0.6466335583626663,0.7712860931428738,0.7391923450955429,0.7419607099315226,0.6218402262729028,0.7425264427713856,0.8477293736248717,0.6739755821442637,0.7833230812024004,0.7827205854472876,0.7806727236268891,0.671482237739516,0.6727879031452741,0.8459479518139825,0.7448331174063121,0.618944458704827,0.8270081681373183,0.7777864669320704,0.7508177222113386,0.6213367287753417,0.6771990354203059,0.8538130547034819,0.7344869261805718,0.7078478108889472,0.8032280547766943,0.759975162815612,0.7386739619287306,0.5985836252652283,0.7154020107182528,0.7998376784700993,0.6155993189247726,0.7166815871083503,0.701747797285281,0.728793969573823,0.640364761707725,0.6497219991361731,0.8115254845186113,0.6903676031749106,0.6526424328989808,0.7742925879539297,0.7809177250930173,0.7874421591035441,0.6618509879019421,0.7912585989092349,0.8681673312700089,0.6524502461343185,0.7772375308625368,0.7803708357448096,0.725882639587113,0.7422187822777857,0.5598240207362255,0.1849276683405896,0.3064576828595442,0.7043467572537612,0.7506558087148483,0.6005065405479912,0.7210752459781196,0.743303447354215,0.7045486116379243,0.5866313031986305,0.1920368626062825,0.17765585216116397,0.5806605744822109,0.7177741397819899,0.5474410496621507,0.6053001521616326,0.6765265570795191,0.6442162513769742,0.5952631304748144,0.2128498009458235,0.07333310920445235,0.45446378877956994,0.7059005861306082,0.5724066916246895,0.5800208031826735,0.7172361676927648,0.7078276842780971,0.7051165565430038,0.3601237329175371,0.1434356575674014,0.48485040631597776,0.7511401967447389,0.6111583352322878,0.5505170451278536,0.6994266556943181,0.717751693100207,0.7281457210428801,0.39965985119466474,0.1508083138111711,0.46971424182296495,0.7491425824282962,0.6290294825811544,0.5834269511709123,0.7288190926505402,0.718172425363018,0.7197620365313302,0.3968376158932547,0.13704142916206097,0.44537332582750233,0.7418415820196855,0.6344822223810211,0.5708261595927326,0.7035012329364259,0.6727340008832758,0.6729423822080411,0.3484146940431445,0.09893293440616413,0.4168266331548194,0.7153226875498773,0.6099430481333605,0.5393328808742888,0.6781074455119298,0.6839747168120816,0.6807732549478123,0.3293860623659146,0.13576860212175312,0.4830757205414127,0.7353207688709551,0.6083273425334859,0.5681128687073207,0.7054571112519918,0.7261357737310568,0.7097499054425092,0.3410279981967492,0.18596325994485752,0.559432034343587,0.7944255269250493,0.6489726972133916,0.6033577676635022,0.7135163659358228,0.6468104091977922,0.5838538508023308,0.2171261681236245,0.0,0.3376318908321547,0.5817631786871105,0.41319631240342747,0.21828807736422062,0.46539511197090144,0.8558306783753555,0.9216565141045108,0.8392420782563221,0.730529822169228,0.3385655077720886,0.2934393089605516,0.681640163283193,0.7809484827285047,0.5922846558090868,0.6417329297707504,0.7514066576018816,0.7222581694494101,0.6843396302599356,0.30738044281752397,0.14484745704559032,0.5147966269725031,0.7470370943548135,0.5981592786374257,0.5760589774059481,0.7016100563431023,0.6944405659618069,0.6718904629476512,0.30518275617526225,0.1332179158292769,0.4923855529154215,0.7369544438487463,0.599411269011503,0.6020720871284551,0.7491787916693253,0.7419400356110166,0.6969168119854108,0.324404383474064,0.1788366043311571,0.5479598401258279,0.7574539884439779,0.6024082646315281,0.6291906316323224,0.7274446456476933,0.6851331906495859,0.6564710404694214,0.2904233935929925,0.12053162695444908,0.47964742585160636,0.7263599387484494,0.5798711447838532,0.5455791632559357,0.6761232045212864,0.673653630424826,0.7205665216962571,0.604328840842909,0.6431868193578942,0.8226624500738469,0.7202014815044451,0.6681162130600395,0.7769495109976223,0.748178186068851,0.7628702495514053,0.6296375952877062,0.7567511794845769,0.8732620207489803,0.685953061288717,0.7868480012171515,0.8116917330520217,0.8024921365786339,0.718181024197545,0.6220720860559039,0.7910896800659022,0.7878558643415405,0.6208304275786436,0.7917729696882476,0.7445003618132888,0.739357120412578,0.6127517149169959,0.696314444057077,0.8500185969430953,0.6913948649250341,0.7275436072146255,0.803156041092743,0.7923401060508326,0.7489872117553871,0.6375746236582425,0.8082990723872843,0.9006034501886184,0.7208384894561854,0.876914112736288,0.9046147995007394,1.0,HB
0.9657199713702537,0.8150564652305389,0.7662639157215251,0.844588406808079,0.7163481437871341,0.46482647171791014,0.7276882646465196,0.8798011350382903,0.8058929266700076,0.7861481317681537,0.8307852467450784,0.7607197857820346,0.5026159334936658,0.7268415162413858,0.8713176226623472,0.7879062540856027,0.7332587072741311,0.7824408822360912,0.7807569061743035,0.48827317711332807,0.6036180878159411,0.8477606972395179,0.7944539869174368,0.7891602458026877,0.7894270257947614,0.8658092095018927,0.6356313225003708,0.6805619299544673,0.9101659044939955,0.8362116399090603,0.8117357909580459,0.7326620723979939,0.8103194112049511,0.6310919169002628,0.5851105959457307,0.8357367310564529,0.7748076607706486,0.7467174452025228,0.7418412634414225,0.786044476207299,0.5386745275806916,0.6230662135579405,0.8799149874797031,0.8093263576608717,0.7749739764804721,0.7345458650921558,0.8072246190802893,0.5940072268217004,0.6279754351856007,0.8792335082548081,0.798800999944756,0.7630578081325893,0.7353244263691442,0.851731663991636,0.7196549443852854,0.502446988197845,0.7706735502008984,0.8284191403059497,0.769347060296402,0.731018630896387,0.7784032359365035,0.827031928221086,0.571076236662941,0.7046806536769666,0.9125381403431413,0.8333614746548003,0.8182392016521612,0.7917294593348102,0.8375755127832806,0.5711581321258344,0.4718641221633918,0.8134990560294534,0.8477153998142793,0.8074880159678225,0.7738256994020128,0.8154024878315481,0.7317828538535786,0.46739316849430523,0.6918609868804183,0.8436943243146146,0.7945973349751615,0.7797138855668336,0.7569598115846351,0.8171097039752232,0.5730474490183787,0.5460860093294259,0.8350105915420644,0.782937027599561,0.7825955197566571,0.755013101237085,0.7680159150597227,0.5930682711101315,0.6528966146728293,0.7353736748566636,0.7257084992133546,0.6754485808670024,0.2768284802888046,0.0929062660160972,0.4488436590940045,0.7529810746958757,0.7100062215388167,0.7330295336448261,0.733304756756373,0.7470625635044815,0.5034857031256371,0.09670812985810406,0.1489851430662832,0.5699523197729864,0.7845421332129091,0.721808235092367,0.7554898506494055,0.7519452600489146,0.742921752512865,0.363329063323394,0.06778654664584949,0.3434847655122756,0.7288373932398305,0.7665848614302381,0.755742478572338,0.7807065590656835,0.8082916128554337,0.6365736043715785,0.2177219065953394,0.18597502890370332,0.5855272957249574,0.7916624689092892,0.6745862386141882,0.704510033061558,0.7205768156751583,0.7586649387728696,0.45497918161547146,0.11044184838228,0.27401533687995805,0.6668167780910693,0.7988021620114939,0.6845022303643667,0.7190641435283519,0.7297500285021595,0.7492389965554945,0.39284024714065935,0.06935458502686387,0.31309867813305436,0.6962558673661211,0.7199908543159986,0.6993657158640435,0.7466660883339437,0.7941519891438512,0.5990742429869714,0.16591308448035602,0.04175984685722789,0.41466799346092253,0.7294722991720978,0.688973904685073,0.7034632594670635,0.7165503210173191,0.6914756693439009,0.3326888722192032,0.040846629904099374,0.28774845761034784,0.6771220098862597,0.7292201784722795,0.704748085150701,0.7777428737520468,0.7968748375636273,0.6368637699894492,0.22428351521806755,0.2021265710757587,0.6089753007163671,0.816249287173349,0.7204354660241307,0.7424404117643503,0.7374125162355228,0.6987513101350044,0.30568532133581805,0.07233141506425034,0.4016722775050754,0.745603327401961,0.7104405132922144,0.7033563163928706,0.7389862288844743,0.769320367898655,0.46299446586227344,0.0888665332467442,0.2477363837680142,0.66489760972674,0.7868914195074844,0.7336555325502226,0.7461123860486863,0.779493955473476,0.6007745628588791,0.18007631005428748,0.13145793316451093,0.5380060344093932,0.7939790646599764,0.7207095774059352,0.7481552350180268,0.829736718508915,0.7788713769230601,0.37012416091518163,0.21945280959497593,0.5930549191225319,0.862604637891145,0.7145159468060455,0.6551993347866153,0.6918502989631353,0.732222892120861,0.48500665006002086,0.09519455020214551,0.20475515218567997,0.6163969826130792,0.7336684835952715,0.6553191794134808,0.6557146538323072,0.6432514284003495,0.46358750854852804,0.05579949791440797,0.0,0.40374459843643806,0.768773137098507,0.9413791481452215,0.9435542927442252,0.9102017127758298,0.7464792478171606,0.6375757249441719,0.2303154074709728,0.017515284989802815,0.3556476902371295,0.6972205871035054,0.6910934388367277,0.7227253648708908,0.7569861578943965,0.5151009728830654,0.6572382560910522,0.8191613339698159,0.8940830193753421,1.0,0.9895018968556001,0.9314730875311011,0.640799550776152,0.38814158236406215,0.6186412367494764,0.7140637444070667,0.7073147734170188,0.7041707761846224,0.7818129241962047,0.6822842762206299,0.5734863509662617,0.8201564651784384,0.7721388409839861,0.7340502604236178,0.6976636523525986,0.8655144661210256,0.8587743023071314,0.6248206122599581,0.8622088814269838,HB
0.9441737950327229,0.7461453863875085,0.7025821951566962,0.6086401036557438,0.5992202858282099,0.5330438079754809,0.5992275589818852,0.6552657836012372,0.6740547753373578,0.5157355948677949,0.5134569272962137,0.8263868649550115,0.7570848224662976,0.54714245516291,0.5744301601267057,0.6184973733786414,0.6379057026753276,0.4726270627132525,0.35891739087166874,0.7184846321446643,0.699630409207479,0.6879918019709299,0.6916473226547297,0.8301465425098677,0.7152385906894807,0.7697949977397247,1.0,0.8300508557910038,0.7616025263208459,0.7086834177265571,0.6703093312257429,0.6224602599743658,0.5732397573199588,0.5994330490449444,0.6300422127015497,0.5197370062749602,0.22780387504053135,0.5593151172170994,0.7280740134336439,0.6353150071222453,0.6216628929487036,0.4641243901801917,0.5629616261106167,0.5995685145919758,0.5657316334140767,0.16903318735989492,0.0,0.38415059603740076,0.5464389223486701,0.5126115482635321,0.4757070340237437,0.37580232128623114,0.0655474355240786,0.33085561733882063,0.532445176872538,0.4012963778162062,0.4532393952496916,0.45219298855933987,0.42718574535998854,0.4772924845095883,0.4877270487196417,0.5381750686337403,0.5650046886101752,0.4992087160460805,0.2721952602765563,0.5968590399246532,0.6537925397329567,0.6036687508525755,0.5882782370977861,0.48842528868412316,0.2415565248559277,0.5190718096296894,0.6272138932385589,0.6091679770208587,0.5789604454085584,0.5101582410766312,0.2970347971685521,0.4959436999607827,0.6201153146517537,0.5397840423222493,0.522948198561132,0.2775811107976014,0.37977886847042575,0.541374830813071,0.5483078239069346,0.5420529542890091,0.4404692287159695,0.6606327746616749,0.6521748610234499,0.6204330980828439,0.5895486631609552,0.4393059409073983,0.2617608551620765,0.5825674882181575,0.5750390636532576,0.5151632875145289,0.4582254709561173,0.2495549639532162,0.36523566086153103,0.43899844634980845,0.43130305009205516,0.332297072862036,0.20011697307096288,0.4640010984874574,0.444093536549067,0.45166021162297465,0.39674297750588305,0.24977991425808188,0.5468125067386871,0.6131646039519834,0.6183781420584378,0.386692515374071,0.36844869043207495,0.605005055028891,0.5985689849351608,0.5769975933693896,0.535208915517412,0.2940735256127729,0.5253442559518482,0.6342803127914016,0.593504875187044,0.5894830118762258,0.36790881365177475,0.1280637185076201,0.4795778433942748,0.5848482002732065,0.586694120996063,0.49320805026573034,0.2678298925359486,0.5030267577946184,0.5055820293001525,0.476057178450497,0.4047279300236122,0.2602998759552384,0.4993581034193211,0.4626260980439465,0.47637597135810594,0.48102114207196855,0.2882112528198211,0.4645556076093347,0.5651983777205127,0.5830819286322115,0.5258170533884567,0.1647249446171326,0.30231046318733723,0.6127691804767079,0.6242631774379941,0.5927408124822047,0.4808782419244948,0.3473830569491856,0.6188334398015094,0.5907834533054932,0.5662990476530481,0.5117350415090454,0.2086398003717589,0.3544249123246104,0.5685455041590837,0.5834948765730301,0.5572856210305268,0.4748124594042755,0.2893526203501038,0.5673531993011931,0.5548547811257425,0.5280512390660315,0.6001355011850338,0.768106755016539,0.739245226061545,0.6736177143679329,0.6300663850337553,0.6547969919578747,0.6552607343015526,0.6702729940426879,0.6973778983194538,0.6401465579124821,0.6424337665056861,0.7703840414328194,0.819084743241985,0.7061704819815882,0.6612329795012823,0.694899580129587,0.6927630550468624,0.5951126811374396,0.7198847914414648,0.6642178351813834,0.6443429781578578,0.6553732727151362,0.6471375411157307,0.6451811785886581,0.5535345973934866,0.5575507601050695,0.7830677954734218,0.6919052636470648,0.588574906893709,0.5561406961496962,0.5958963764310945,0.6546053497860829,0.6927904178340074,0.7078865585628198,0.6704123276397853,0.684299446567993,0.6120217259480616,0.6806607338252078,0.674176936587628,0.6711722856110756,0.7697591108442525,0.8774240554918378,0.7264735074173481,0.6756536155647921,0.6573814251065939,0.6821860846387415,0.7129678603061587,0.7600562393482346,0.7009608078472915,0.684256115467726,0.6025615934155368,0.6281716911442019,0.5386781507531331,0.5183372606101266,0.727531400785062,0.6343978506031487,0.47008380167392705,0.5026155609454697,0.5254537165829234,0.6068219162520627,0.6737537441156878,0.650191171277958,0.6079305487001685,0.6936421785671327,0.8664205293201226,0.7233739944614515,0.6804233814122229,0.6859187007564969,0.6952201914055851,0.8470223219712358,0.9270816199718888,0.7109821543294128,0.6212900884784953,0.6058473227017283,0.5907430455793672,0.6415475231995518,0.6483323758363375,0.6293449725364244,0.7967700835033869,0.8835958855067294,0.6361036078717399,0.6244723453211547,0.6668399241967977,0.6707990983421466,0.7956594527702787,0.8539789029012863,0.6846974326433917,0.6632044569964957,0.6664831546533221,0.7134394952497005,0.9310551430864882,HB
0.9686104826177735,0.6376059584832374,0.6123045165892502,0.9354665592480704,0.9703358979296566,0.9115072478524244,0.8583445102850489,0.6956079227353194,0.3947581313966319,0.5699760738383386,0.800819079551726,0.7563077439280925,0.7375951093119228,0.6686082236067152,0.35446153495769855,0.37272005537010194,0.753823961956561,0.9105292733928227,0.9989967390571259,1.0,0.9337420066272009,0.606156056697424,0.6076346202867944,0.9237092352703493,0.9394582190385694,0.906269404417823,0.8834535843611313,0.6028138134083589,0.3926611328637836,0.693488084511084,0.8680065738233342,0.8790124539366253,0.9789887319790396,0.9742218212451643,0.6904603860082816,0.6571547200091006,0.9410145693122343,0.9308205769204652,0.8869721053140884,0.902082680656398,0.6589032062363143,0.4659260762554574,0.767637174728131,0.9167192260269295,0.8975029522715536,0.916170661933732,0.8290780559884785,0.527886315591779,0.678277326956217,0.9265280267254412,0.8928539602980254,0.8687676753200382,0.8489073661331841,0.5310049288716541,0.44448866168689355,0.7808448293508803,0.88130991117169,0.8510622090940729,0.8572294092224555,0.703519311998241,0.4946730575794677,0.7467979202435631,0.8378554874032427,0.8990572144840276,0.9757598225198063,0.9226720865624516,0.6666219720511108,0.8465243175304928,0.9723857603178128,0.9306199284389556,0.9195307833958086,0.8313243687350735,0.5024579604144963,0.5820550876121664,0.892647244658682,0.9036018726494621,0.8725703137059924,0.8957007581869427,0.6693890186706946,0.48301373023224253,0.7800142458954444,0.9055000599646827,0.8863795650027313,0.8961361503388026,0.8100598748095338,0.48127564492111724,0.5737648773291681,0.890470115327902,0.8908308119280006,0.8440213485764965,0.8773748922691527,0.6864605447198688,0.4596600435877097,0.7352189579729191,0.9113281253368677,0.8906928815844513,0.9130980303456682,0.8567475843000198,0.5229611423817493,0.1964549542450445,0.3288211308607652,0.7207278015188778,0.885548585711867,0.8544676937085396,0.8435523739769568,0.6856383144167133,0.28637788771023265,0.14980824674559,0.5033096853829395,0.814388467216915,0.8047013382525965,0.8398916341337257,0.814599074299881,0.48100204746641045,0.16464671523657565,0.36590230979083477,0.749973274295503,0.8591703600402656,0.8505327591343961,0.8496322910756586,0.631488247270805,0.23808186460406877,0.2242734716822682,0.6139298443883818,0.8547751028550108,0.8380187631965041,0.8617313428272313,0.7969093544946859,0.432373550425811,0.1670712022443669,0.436797023739182,0.8088180721690053,0.8772194245173148,0.9016418955424073,0.8908176737596203,0.6031407810317317,0.2406491834738671,0.3601383547818459,0.7645062472699065,0.948502670323291,0.8894168812156629,0.7940168469563311,0.7198968847587324,0.35397173264908416,0.08434443575863032,0.34405892570760005,0.7252681844774014,0.8121912789108385,0.8198992114177555,0.817480664514167,0.528127983543691,0.16895036943445696,0.26922841898315036,0.6679370846733659,0.8399679917291618,0.8455237047499993,0.8693970396183688,0.6977136219679687,0.29736523663815534,0.20902558360095053,0.5818652901716201,0.8726600370878415,0.859236333682625,0.8553126937427966,0.8043102183001538,0.45486427635683785,0.13157462741804532,0.3320966323941048,0.7321827465549919,0.8603897231135447,0.8643150998684181,0.8964300371697869,0.7016465705776427,0.3042346097702414,0.2520512070363389,0.6184874459781875,0.9275995488971354,0.928597969311868,0.8247853210194946,0.7898496829937569,0.5397176371986756,0.13895960233613003,0.11702196725088337,0.5112274409053201,0.8311491789059708,0.8619102373627443,0.886938889366941,0.8267963850438451,0.4619278512160952,0.18487389746928562,0.4425595338395096,0.8296528122228963,0.9524151860807968,0.9525552874664727,0.8622612754210166,0.7118703252136811,0.31742643547410604,0.0,0.1986170856009783,0.5757891823232109,0.6799283467553114,0.6974171386565826,0.72344468671628,0.4691544315860389,0.13612559266954222,0.3070911876632341,0.6918347034753953,0.8165889115702913,0.8915517004394993,0.9209239836326426,0.7865065970726075,0.40218105359311435,0.32687548087776247,0.6698425958621224,0.9613568713083169,0.8794099596670766,0.7944514771849613,0.7693615309578996,0.43837217256510236,0.1732862131143083,0.4406105607639848,0.8048880620443226,0.8712086735381881,0.8359730499499423,0.7327390880139173,0.3521420019347196,0.18106963227149742,0.5161112536584029,0.8416505026980297,0.8435823361181638,0.8010246834816619,0.7232319758780417,0.36101976061533986,0.15525563751254395,0.46423813274820697,0.7863260521257232,0.8252992108651556,0.8385846924252407,0.5602747414298446,0.4815731360336604,0.7945327142304137,0.8504365903580877,0.8722498340323062,0.9064631625470436,0.673355167359587,0.5848572839265398,0.8628681870448911,0.8814980529050409,0.9088719665490268,0.8500853417103671,0.556309119928361,0.6542114648731578,0.8721502784377553,0.8515736244156527,0.9661883830116091,HB
0.9999999999999999,0.8407659972501264,0.8790218275091916,0.8681124569684141,0.7737627230467562,0.5350669779024119,0.8043121112481725,0.975073776280886,0.8613676247605843,0.9342990269742596,0.9438349537778269,0.7818543822998772,0.6057916115898206,0.8635823678697622,0.8236378198504474,0.8025297064979265,0.8754070654079545,0.814597856034058,0.6135019849357014,0.7752971175876152,0.8967696338802088,0.8243474067490769,0.8662528516274345,0.8448062968822193,0.7140099673255168,0.7616723173688523,0.982754875640201,0.871645978306908,0.9109917135120663,0.9470109837025992,0.8274286007397468,0.6501570883399587,0.9274084812770783,0.9195369420828626,0.8504082137119028,0.8989268361413728,0.8807959387943692,0.7105829295818281,0.5489190824320113,0.866448032117548,0.8536082175716907,0.8250830241682717,0.8953071817598631,0.9115882893775701,0.7903384351138584,0.6295624379516646,0.9334711503518432,0.9278936899771163,0.8851532034078634,0.917523604872449,0.8115207423644003,0.6342220846174526,0.563686192601026,0.8254142173218936,0.8050133109637975,0.856400773592959,0.86147892921874,0.815621007386666,0.6067300447561158,0.7714590466580532,0.9150388216934798,0.8518023341158404,0.9118110632884725,0.9332219117727923,0.8036927288325307,0.7641819469761003,0.9933934713801297,0.8651294862196898,0.8677331978798805,0.9174059256934323,0.8995096289800976,0.7637050614777335,0.6292602914855737,0.9065930549628695,0.8733508883428559,0.8773685704853785,0.929169976009751,0.8830494265700058,0.7176034919635134,0.7401127425778663,0.9315770107417495,0.8381134164091893,0.8227110096859681,0.7970405686356957,0.7237643148699172,0.5453150998055293,0.8131042273406434,0.8413986726945392,0.8212960063345162,0.8934735022945094,0.8662923429906643,0.7058186214850662,0.6759386553710086,0.9442185038268333,0.8677177559979671,0.8911847997506538,0.9340146418981402,0.8736570774190525,0.681389226430991,0.7088803583585407,0.930648555903164,0.8236555783279566,0.8429083833684013,0.8711373238957015,0.8318650025778899,0.6184267042986574,0.8085505801159466,0.9557578257507445,0.8576056969095608,0.9053176650057554,0.910888918562008,0.7967512841788323,0.6993154075104243,0.9648718496621352,0.9151992058640998,0.9256129170570558,0.912920594949335,0.8047552447486718,0.847843756554235,0.6041288831172625,0.15422581644392064,0.2717242221948578,0.6947611124517384,0.8283510004025977,0.8175093729584332,0.768291797183838,0.794739294783419,0.4580523008492593,0.10730596553093685,0.4009302580417403,0.7407023420726223,0.7886171400383036,0.7593981187537452,0.7275297160128881,0.7703622871630221,0.6349667105687643,0.1988992304017193,0.2651102054575233,0.6617628208254952,0.8104660563257421,0.8341132589861283,0.7872010930292076,0.788598951505853,0.6649866053530485,0.21609326312090038,0.1956217586030523,0.6150665989149696,0.7799655415739798,0.8005053436068382,0.7397153424817663,0.729824390207975,0.6884004422319004,0.2439529890183011,0.07582806437853284,0.47904143570623214,0.6954134178433099,0.7163346048722682,0.7457361473078242,0.7467907612594716,0.7475634507461203,0.3388122657672209,0.18494525206224977,0.5803216394615133,0.7882244110176281,0.8480994605484117,0.8067260496116836,0.7533183576080392,0.8034414189308275,0.47218412139295773,0.12133861819187886,0.3956576355264091,0.7429255786032204,0.8296006082756483,0.7994864234156526,0.7471385808402006,0.7910098828661051,0.45162161609130524,0.17002110278051863,0.5270082813225992,0.8295002615545747,0.8501428618629842,0.7995391759296658,0.7651274063947958,0.6846468819262853,0.23920613421060655,0.16514368336433638,0.5795848979760599,0.7692951775707465,0.7769096630145956,0.745814936942549,0.7141655153020653,0.49422351512090257,0.06715515641983172,0.21162875631233902,0.5985338812026625,0.7579859447537617,0.8402825568628475,0.7862242614409264,0.823102515485444,0.5681032659319597,0.14781836261142145,0.3268918601254044,0.7297506738479133,0.8242697776803641,0.7809615576422749,0.7134121381860651,0.7614089029870011,0.44093096801886256,0.09214806571088296,0.3846972332321247,0.7304535547562757,0.8051561168390186,0.7810349926417798,0.7630529377385832,0.7612193172564753,0.3392461280492919,0.10493445440768612,0.49251048055246904,0.8077611282243066,0.8637345501009149,0.8050650100288933,0.7931633700309794,0.7133781987040196,0.26353755480590546,0.14490682730890259,0.549924543407397,0.7464592282659465,0.786011818235593,0.7438459501365623,0.7659362974978395,0.6405056159295001,0.20072709812795642,0.2408408812772308,0.6406633605281088,0.778516367013297,0.7634992109155326,0.6778651016433387,0.7544443643359341,0.6271006198589276,0.15856766669981404,0.11018629840935745,0.5593244179603324,0.8248378578542811,0.8659512284147942,0.8085399937490391,0.7561559132733112,0.7197902234412604,0.29672020980177394,0.0,0.33848826007820054,0.7082353984973583,0.7891512394436769,0.7810185309934577,0.7498238665370177,0.9621257910253064,HB
0.9820986221637416,0.6600778757250649,0.31622665567451486,0.2589031422070784,0.4169244894055309,0.4486328694858364,0.4001461746775418,0.37245434911537717,0.5663069521428787,0.8808548020799003,0.9146476755015984,0.5907235019923596,0.25400571848105885,0.2267785943437713,0.3642335356232999,0.3972378656904824,0.3536450170634701,0.45886783396048053,0.7474181747810811,1.0,0.8308398132938906,0.4805790144126521,0.25239926631215487,0.3609476050703683,0.4027385127572218,0.3568242941850324,0.4316849878349039,0.7059644811961463,0.9989817338185878,0.9014974890317122,0.5516131982701173,0.26386322339805407,0.34473921497610366,0.42762360720607967,0.3847380078614053,0.41719701008806936,0.6605572287381458,0.9746062367693058,0.9510909907804324,0.6126298989010923,0.28644412039071415,0.29264935004904796,0.39776864319346633,0.3885677513088261,0.3428438673891266,0.4890090151702923,0.8037651689985008,0.9707144821839344,0.7086112160935847,0.36410517252620017,0.2643704006826309,0.38738101701196687,0.4171152294644221,0.36418764038582646,0.3705450684280523,0.5985066821610878,0.9230182432969998,0.9787347042041574,0.6910254132567231,0.35279526526984756,0.22206388515551184,0.3901841524287471,0.4501989145338165,0.3860278818289628,0.44597470898985686,0.7221049530306247,0.9929823662399935,0.8472538723709593,0.4919182398577309,0.22072460101261498,0.323855807569234,0.41270490596093606,0.3912904774009251,0.354502548738657,0.5374874322723839,0.8511480790620076,0.9770333746076982,0.6921382669562199,0.35419894587337525,0.30075544820200634,0.40911909839753574,0.4104317391194849,0.30802895187843155,0.4055066980513666,0.6940689493062799,0.9656242521239846,0.8210232797773573,0.46733715846698515,0.21193608086309174,0.336278707621584,0.4376809892429469,0.4243294133191618,0.41517790732665555,0.6258489788278225,0.9365356112349785,0.9774278802084748,0.6551148038201884,0.31259072871047106,0.2579170381673161,0.3969157866023327,0.4333947875707502,0.4111428945466706,0.36059148310323924,0.16786069333225867,0.019615894356645847,0.28881824399431305,0.6421999851509426,0.8932257657267293,0.7142549061293224,0.44844846482970385,0.35296084694336066,0.4181177066848118,0.3652721687517649,0.15390688712198025,0.04232162793181782,0.3311178514903775,0.6730262791166977,0.7729610641673095,0.4991213478054128,0.29350627786760924,0.31563323925640946,0.3953230556562218,0.33584587917006353,0.11671895743677213,0.14362418074713895,0.4808727927299426,0.8107426242645284,0.7997150586055815,0.5040913181054669,0.3187496842622473,0.3527482656324716,0.38232357315059723,0.2621345620556375,0.0,0.06465833096891749,0.3950084391184003,0.7442905183299009,0.83319297734698,0.5510652439788082,0.35477846110225403,0.3893411625300685,0.4081541556866996,0.29510701915543297,0.05793452624468265,0.16821967565246715,0.5191475030839725,0.8398703113695851,0.7866470044155514,0.48468867601591,0.3112022076729745,0.3577325666710252,0.3793075832796932,0.31565723213135427,0.10209066372129533,0.1983413037534421,0.5467965621442044,0.816222688021673,0.6562912076470573,0.3870491106726763,0.3152310058849365,0.36964311405653577,0.3414502990193577,0.1245651717636817,0.05797829945595778,0.34754628934193493,0.6944391886743031,0.9209341735238072,0.706707158743503,0.4303779191261838,0.33165621264328654,0.39577305737525176,0.3581040389213917,0.12021665066846171,0.06998072728883348,0.36884496562360763,0.7161305228640926,0.8488598109190304,0.5808129513288793,0.3567772995815858,0.3381307957934577,0.37201329460517735,0.3032615328857546,0.07651902752450268,0.17250117092415668,0.5206863586521275,0.809281004086503,0.6823964204072561,0.4161010526487146,0.31819367091306844,0.3662064335801268,0.32574595897411,0.13039763672098165,0.0032906918173915556,0.2836783072524515,0.6342632545147195,0.8056165289653301,0.5624087813289231,0.35046538537846955,0.3560485890589454,0.4234946882261225,0.3952283837670418,0.2333906580029645,0.04378000640865709,0.2599537849388292,0.6119329908824136,0.908713713771137,0.7964871055569165,0.5035827210245574,0.35572948990299785,0.39395963094950387,0.36704860715065873,0.23358796493121453,0.031749844961237284,0.23515913051359066,0.5932534909002762,0.8620917175850613,0.7009624048023415,0.4219455714741637,0.3119851760048135,0.3828981245689039,0.3456366189630444,0.15941518758570122,0.03881353502426116,0.3223116635911906,0.6815179880785112,0.8800210348796131,0.6476673442458938,0.38917475668604257,0.30233792537350285,0.38007180122180356,0.38841832319460706,0.4089520841157402,0.4004627177666545,0.34179063633099344,0.49759850377664333,0.8122972392496277,0.98568317292712,0.7273656781023328,0.37758282680024285,0.26472289286213263,0.38202702666820626,0.41310582899832854,0.3442862569324448,0.46016233381521027,0.7528045453784316,0.9995091156239544,0.8261162208192405,0.47693839170920055,0.23477349963723587,0.3446528004172162,0.4138273349911786,0.40696874628364393,0.42634340048128067,0.6545191763126934,0.9672228823251217,HB
0.009194967602838167,0.3224766513055202,0.6398715029533859,0.8468998108861934,0.8751193816574587,0.9011295697167223,0.9283929975023222,0.8669534187159615,0.5754408858237938,0.2624142039424034,0.21897676272353295,0.5096505718999857,0.7920261604107743,0.8793178258909218,0.9040612364043656,0.9124821606846263,0.9258031530733255,0.7149963984077459,0.3906939187644302,0.15994555585324066,0.33843385441833024,0.6523365829679899,0.8565004642124856,0.8787160032827253,0.9127217229563784,0.9397611752163262,0.7879873269185853,0.4721723547616104,0.22148612792994288,0.35992671250632574,0.6643779987770344,0.8488135626399085,0.8836861302543728,0.9049987353403635,0.9347949583893973,0.8100611053971254,0.4970138775626752,0.24101029162395138,0.3729744147376269,0.6808959157538061,0.8886093589783277,0.9238226212390117,0.7337980002667699,0.48408314881833087,0.5850284993919597,0.8802102525874627,0.9774525057877423,0.9479730171363137,0.9280291405963463,0.909044990598745,0.7909888105044829,0.5318433223177226,0.5354973788980222,0.8256166096142932,0.9843403933367549,0.9639537781246925,0.930873046553232,0.9230720224669933,0.8140245147892529,0.5577445552831868,0.6071592861297224,0.8890673180091626,0.975782139548675,0.9529289059839667,0.9333843419675742,0.9139068651471056,0.7159283513409678,0.46602125720677184,0.5826435227275477,0.880205346323224,0.9844623624826894,0.9503146318447375,0.9279491373629283,0.9025714259854176,0.737352963651351,0.5024917196790522,0.6236246724446144,0.9011074804308496,0.9702121028941761,0.9551822573814608,0.9420351439165298,0.9281714014297282,0.8508282148078732,0.5919267669672073,0.5085934013243216,0.7786144446586585,0.9819266120554431,0.9664732550082125,0.954299599064129,0.9256182800218151,0.8916228698763549,0.6636308368818242,0.5056465810245971,0.7363800564828562,0.9791337609300268,0.9824304754208226,0.9573273387195835,0.9249612249003347,0.8650360274031812,0.6183445706274677,0.5107337383750139,0.7700073998227417,0.9810969091339765,0.9677493832004826,0.9476424926135072,0.9308868211044212,0.8087960212284169,0.5307340646458991,0.4964613031807425,0.7849636288023598,0.9953928047266427,0.9709655165058069,0.9427973882815834,0.915404333754894,0.8184831024989829,0.5441973669306699,0.4835048916440711,0.7580880809156929,0.9742958609546479,0.9682433936844983,0.9434061772179396,0.923420646482104,0.8404602373171208,0.5669784620392708,0.4356593865951072,0.6867218891874072,0.9461970636107537,0.9859543101057622,0.9582642611350465,0.930917777099826,0.9096120132538335,0.7014064013120871,0.45016171536743016,0.5537840003184393,0.8439620408079849,1.0,0.9685000795471075,0.9486533156140262,0.9242234549637662,0.831028145172614,0.5544182473021184,0.43835523546513594,0.6988242628760399,0.9547987830433073,0.9703396867235319,0.9511745561663796,0.922463102250906,0.9052573488209441,0.7389578910033341,0.48268562608796045,0.573177191938286,0.8713089986667721,0.9891089050487258,0.9565798548933202,0.9320695603119764,0.9205967490213964,0.7645023453401549,0.4848391259842883,0.4633814419088766,0.7559960900066298,0.9743779785663138,0.9592026246557837,0.9503619345263892,0.929174921067254,0.9027653692025168,0.6821203676069363,0.4957826058407954,0.6973240046264888,0.9534118602111075,0.9714083367522257,0.9543781087134082,0.9184387191028811,0.8854913591677449,0.8858391624850723,0.9105943200693887,0.9267615221767977,0.8259644660403525,0.5251363978552477,0.24037260919114056,0.27399391721566146,0.576729384871141,0.8286372005809541,0.8763661161037,0.9035750449677395,0.9108512524848513,0.8825129701595356,0.6094461895277874,0.2933294410514632,0.21344088896488062,0.4813577751810069,0.7685770749004694,0.8798120215129352,0.8999945066329238,0.9193189595964106,0.9128602880776286,0.6646873831291742,0.33871898369060377,0.1528531194718885,0.37115960759709127,0.6816332045755675,0.8591023175442491,0.8756657193449067,0.9014124208243799,0.9179457494554755,0.8991464174110364,0.6426638701623244,0.329313507343907,0.18292933495822805,0.42947937047729373,0.7318938943305366,0.8721673408466859,0.8908099482063707,0.9158436005015165,0.9419310439309028,0.8185199762787503,0.5075054183714762,0.2569362379190177,0.3963436316585304,0.7002858593153543,0.8717527272739354,0.8846402793440864,0.911971193044248,0.9309802170482366,0.871191299972959,0.5792813461889956,0.2711098448682845,0.2589666488331855,0.5548958027192534,0.8184063850800178,0.8796318530784302,0.9024350411308215,0.9131585428151112,0.9192486154774431,0.7058153541861143,0.3907607171381355,0.176054494848357,0.36937235074088787,0.6790813561424942,0.8602050159451258,0.8816182552234315,0.9145600567003418,0.9400228901545806,0.8045602890773138,0.49005244050036195,0.21055541355449076,0.2974858291550199,0.606677952437578,0.8430307580697132,0.8838356497187292,0.9130040209217607,0.924369524926208,0.901785245534173,0.6351673570118248,0.307252031496845,0.0,HB
0.9988646104626167,0.8496214987621302,0.8626711711743167,0.9057133260488506,0.9678115021976659,0.656300132025895,0.6013720531461753,0.9632235432765204,0.8903202017383491,0.8494907121703625,0.8283351967118118,0.8696321709988273,0.6028272914272057,0.3953590718532318,0.7903872379659234,0.8752358466088812,0.7805476924181467,0.7781821173015349,0.8009191733984347,0.708604259387231,0.37089086851724185,0.6131863576786143,0.8844052495552286,0.7630467909418335,0.8140610703883735,0.8197423637167294,0.8385173331456297,0.5619920012637436,0.6627331139183514,1.0,0.8994356277390971,0.8494395686368148,0.8657104325557503,0.9093025967095572,0.6131286693336131,0.6554717230233762,0.9964127896922248,0.8936902179217081,0.8878673878421042,0.8892294103185696,0.9263042421601582,0.6365949821391537,0.6139045276533919,0.969741466937561,0.8868481837236319,0.879266472052548,0.8543905066795512,0.900264827936347,0.6496383073541505,0.4759666289338427,0.8554348591392178,0.8453023633747674,0.7766077044866715,0.7642779039393517,0.7707766229052329,0.6434573997557957,0.47722488119457385,0.8245595810017363,0.8460159929948499,0.8306673371510294,0.8720642777399887,0.8774237004288472,0.8136248664428916,0.48138644719830004,0.7094818671807515,0.9312466205276593,0.8926550377689266,0.9201380205765943,0.9181525018540806,0.846991310594206,0.5533184562515279,0.7373907418414549,0.9368708755629203,0.6772605213516383,0.25892030292392065,0.10806756352403579,0.5115818464377373,0.8171776528569756,0.806383270722224,0.8355146385301144,0.7923050972869605,0.736457360670006,0.26178328636099013,0.0916471067127631,0.5437163473452669,0.7944834973809245,0.7666474310572133,0.7637087081168077,0.7069532031196353,0.6018183792165255,0.10737016645351094,0.03641298330334175,0.5014975012681608,0.6791774878285999,0.669971731819865,0.6809509951018082,0.7037413810067217,0.6259296662857885,0.14077807874952164,0.1449864429580523,0.624134170418174,0.7979315397687925,0.7737541876721123,0.7755943857719787,0.8183532049158462,0.7011635055003693,0.21900023968747484,0.2342063024106904,0.6994530059214377,0.8283355358713509,0.7995717868833498,0.7831350625369655,0.8648281794480823,0.6129372255707268,0.1674842245878605,0.38495718400210444,0.7870851215458607,0.7764095327270715,0.7585235919589675,0.7870573430170316,0.812997874138059,0.3825738077085037,0.10111894260455112,0.49812136791466144,0.7584446474128832,0.7327939401408448,0.7178438058564995,0.6666465859107258,0.6811041592021745,0.23133906815517769,0.0,0.42815074708737755,0.7143732276997445,0.6817701918967698,0.703363807532563,0.7280108398684098,0.7189550160320901,0.2545602955930868,0.06310655851711378,0.5062718724451261,0.7765981570725367,0.7405097173054718,0.7572973935740586,0.7861539809815246,0.7251859560052321,0.23878786686671205,0.09543701992169806,0.5660484916342226,0.8738265708912807,0.7937202228354305,0.77523391533486,0.7487383764850919,0.8434359636433908,0.5064148430786148,0.112461718398434,0.4242240212816293,0.8177164035905808,0.815317956060361,0.7840434691885969,0.7655352302856171,0.7844842729040113,0.33744860251692144,0.0854925669658777,0.4974968651412355,0.762265191420719,0.7363428227269289,0.7599486916153881,0.7377416034829691,0.6302204054049119,0.13674815603667945,0.07855959403064117,0.55326456230818,0.7585890850332255,0.7657906419650229,0.773772755430957,0.781437698704663,0.6348078933179759,0.14323848234581815,0.17469243942199064,0.6277640735889305,0.7114191781307482,0.6766946748108538,0.6742786212962093,0.7513404483021451,0.5655236677598654,0.09786455345911649,0.2448456151824534,0.7186418997598842,0.8408009984627971,0.8112290675660483,0.8018703913983303,0.8828344048321801,0.7386381256136341,0.2574464281081552,0.2839126747238012,0.7478539299910438,0.8514318355207151,0.747007214642994,0.6910296998925318,0.7195378049865866,0.6036157714954187,0.12098528302285505,0.17291889861025522,0.6401113914077592,0.7638232615321074,0.729440887092978,0.7659851573833967,0.8283872081900139,0.8117807836263671,0.8694332067556201,0.6468534275123017,0.4904037271045747,0.8555400893649043,0.8345751581416772,0.7873018573759767,0.836323577508844,0.9534710016002363,0.8685189596433744,0.5956159719032912,0.8927310025708204,0.9818456437187706,0.9027273160007203,0.9016308665676336,0.9347028020552837,0.7532082648225167,0.41742461568622025,0.7155482643907387,0.8970936836408687,0.7610574737452813,0.7730532286143976,0.7785337743022067,0.8069814966739797,0.4987220341229164,0.571334314126233,0.9053778653029467,0.8607339670452774,0.8833294787460373,0.8416033978891422,0.8121811006550845,0.4978778528425758,0.6103784074583232,0.9065101070064161,0.840942653290945,0.851867335740192,0.8360101185538706,0.8286901944529639,0.5616289131251451,0.7467361899130984,0.9627406046097802,0.8554780741723476,0.8812795261946884,0.9316359614877947,0.8783123570789049,0.6076462818312063,0.863840258715368,HB
0.9265022778821224,0.7361604913989139,0.8423296087572187,0.7308456603743179,0.7398298194358071,0.8240391990148139,0.9047941940127076,0.7292300991478586,0.7864875066025316,0.7074916480660152,0.7485290031321692,0.8600938278963435,0.920891777870446,0.7488905125153944,0.8158150789708292,0.719625923732353,0.7438677193221781,0.8470501406569393,0.933480474057661,0.7248072014834186,0.7999114082420773,0.7255567414839388,0.7197762165688562,0.7673354384283555,0.8570145809824501,0.673655852763483,0.7070042461825152,0.8289549733410975,0.7395952411696363,0.7804656209715488,0.8777259189702753,0.9596162130890509,0.7025934921622623,0.8396339287990391,0.7799483115519106,0.7522884479439744,0.8049828229949223,0.9552950038657775,0.8755590014556724,0.7413759614456863,0.7585803914821581,0.7038139274986452,0.7561159929998986,0.6486530230237899,0.27253078241374373,0.26943327982227894,0.41528478868528174,0.49464875060125957,0.3870035424331726,0.20964437922388113,0.570975012731473,0.5445739061831958,0.46362577723331455,0.4902105833726438,0.574605169842171,0.35317524329665684,0.5061775439746832,0.5864145885184606,0.5061352852982783,0.47229622256767056,0.5467588482747825,0.37633155118867023,0.0684290526215614,0.4554993849509663,0.5309919353499128,0.44487762933077546,0.4380315314503149,0.4948075039557409,0.40837241068819985,0.20056547477300635,0.5973789402833369,0.5835925855533306,0.4762184503112148,0.4439610331396966,0.5025475464706752,0.4842834720914637,0.11975094858595714,0.39901916349374567,0.5683873183335901,0.48511172844291073,0.45122513417891064,0.5218372372050966,0.2352330700780323,0.18263428673298598,0.5428568494393886,0.5092620981011216,0.4518768667716433,0.4846159072582936,0.5495899206139518,0.26219751460262364,0.5170863976725242,0.6179994579907109,0.5073000053531058,0.4603433681709821,0.490758933792788,0.5205171797396311,0.18347818794440185,0.4296173149009004,0.554381414536465,0.4632965405908438,0.41621177478628857,0.4924781991641143,0.3749221141459609,0.27628614607980095,0.5588423023388338,0.4973164673796582,0.4533687929828023,0.4566454593294522,0.5718376742053946,0.3677223027007339,0.5331565885706251,0.5779170535165372,0.49596890829578166,0.4754917331652435,0.564396848048498,0.3773677318156752,0.15145126686346844,0.5342535162787145,0.5403853645289578,0.43347998205754124,0.4358950723764905,0.5348938937663426,0.32958661392313626,0.497596945174799,0.5856480765266885,0.5077059379221756,0.5158022601169336,0.5659844741187348,0.4355646736255827,0.2835847574040353,0.6190437551332719,0.5270304764322482,0.46793123052632435,0.452325022582722,0.4984090148338911,0.3950886822154551,0.0,0.3341314931493917,0.5635297770793435,0.49816602582643954,0.45785402042498413,0.5250537723712823,0.47755092076719485,0.20701568537424997,0.5769152978223522,0.6208598037803457,0.5108446280748198,0.5005095131911288,0.5453625701292895,0.48490200211207757,0.20634999056531056,0.52641498098729,0.5600231376764921,0.4742518819609014,0.4466904523945643,0.5547918185749467,0.30374009391788226,0.12495722425388323,0.4979157594046182,0.5034057057401116,0.44973501361530266,0.47902967229176907,0.5214427552560155,0.2523800864389609,0.5722913333456194,0.6777724453890399,0.5165782676197632,0.46353274360224717,0.48516356195211685,0.5609809118724738,0.1837851343482284,0.15384681385708943,0.5526778878519809,0.5427774506701222,0.5708972746003007,0.7411227809997758,0.8585195444603753,0.8687749325489773,0.6768804916914357,0.8322830074022485,0.7375659653477009,0.726410044111462,0.7943791998362077,0.9399253219971269,0.8594535210924152,0.6910011539829433,0.8242385364736826,0.7315161998820656,0.7261407046161463,0.8100112920762337,0.8783362274616646,0.6195694529945408,0.7703114869170009,0.7685572477886051,0.7380463833916062,0.8112795189928215,0.947659198661492,0.8432404518141925,0.8047735899547601,0.8042964686551528,0.7703823445787181,0.8135856548339464,0.9332945868055669,0.8179970737921725,0.7430463690900906,0.775426569242216,0.7099708525550978,0.769273055627254,0.8438499594707838,0.6538081931572663,0.6835740918206303,0.7340717529119276,0.7166260527153221,0.767885883118244,0.8542704899658959,0.8865808861177533,0.692390077498378,0.8423413063118419,0.7712224064541986,0.7702346453757105,0.8384355935138883,0.9601507168826018,0.7589801807176664,0.7293286685041651,0.7515956841304101,0.6998662418370514,0.7630447995805705,0.857586371531252,0.71565348522652,0.5569575588349234,0.8293638539933319,0.7598830845923712,0.7583825772777435,0.8402575162214396,0.974622762506987,0.7470361608414549,0.7484945212974434,0.80970184233305,0.7433045089234462,0.7454470292860549,0.8697577394671874,0.9473515408999966,0.5865046305176582,0.7272765400770864,0.7327495950078702,0.7003993467681973,0.7722509842697316,0.8740495110771764,0.7298571388532493,0.5464427147331965,0.8209231007995355,0.7512672785789656,0.7515472419276459,0.839070565360561,1.0,HB
0.921108865754705,0.5518494146701506,0.7174782651267505,0.6970969297390116,0.7536242996002726,0.8987082888322903,0.5457657981490421,0.45664763073677317,0.6896503919140208,0.592611681394969,0.2345819001560232,0.16280705287439812,0.6219585625966345,0.7170231324466726,0.6033127683275842,0.6734850500154185,0.34969172788900094,0.13313984443925653,0.5609362851085816,0.8634578715161448,0.7296903505627378,0.7211076153773502,0.695607440908261,0.6584793670455095,0.33841994600530645,0.07380826455566425,0.4876054781330649,0.8304256142439078,0.7076828313571492,0.6735749390907363,0.6799219815484859,0.6559416198222922,0.2600129417069641,0.2065073840493794,0.6908747479828939,0.8245949190284733,0.6531829068685081,0.650639699227353,0.6579648939923003,0.3893310078844471,0.0932271477229385,0.4743296183728475,0.8002446592385534,0.6800377434518016,0.6813942632213662,0.6850669950462446,0.4339430519148465,0.1140877285780093,0.47650166026720997,0.8305342146988269,0.6889250555980427,0.6195072351595742,0.544499062929653,0.09816177061337317,0.12907909126376482,0.6334355863977058,0.7469630394398615,0.5975712286386096,0.6348371844265867,0.6179917870097181,0.5072596475952383,0.11211154945859059,0.2707837561548089,0.7420347465617892,0.7499185135457812,0.6767219235351395,0.6959228108715979,0.7064621920683655,0.34196212085878364,0.20616883996626256,0.6656749843507889,0.8240586527947901,0.6599294800978012,0.6492990615712705,0.6437034186131868,0.418115095468801,0.1093329028309612,0.4381639841938948,0.7834491793044073,0.6266600760930493,0.583416655009593,0.656399683919438,0.6600793214815778,0.28516747318446667,0.294343081118847,0.7625230448480739,0.8011749561729856,0.6535975757392228,0.653349919978128,0.27344618465804027,0.0,0.39447413815210786,0.8260507530105893,0.7444865975646845,0.6876327473818128,0.7059899672357118,0.6439511804685624,0.2472133761845805,0.04259598102932749,0.49661807006772263,0.8324349532268237,0.6690640492897343,0.6031975387997609,0.6245844415808056,0.47891146380231453,0.09134505053326525,0.3403412139772014,0.7602800907905428,0.6785233598495449,0.6446128142993727,0.6826360799650061,0.530536859784987,0.17728773852463353,0.4732951440435421,0.8675615294988822,0.754067436430851,0.6533887902564505,0.25843351584423546,0.09412500100418553,0.541094863377879,0.8071036175951524,0.6874975323233722,0.7423677848170699,0.6284020956009736,0.2431303618655447,0.44279059770396023,0.8439077636256122,0.7519073786577294,0.6499657632917094,0.6494354706758995,0.5806047612943978,0.19393879160967697,0.06930497773924638,0.532180600996801,0.6828734218513298,0.5294089639929908,0.5852632140099988,0.6516891635981864,0.4704977146903878,0.12815172498325011,0.4481392671203447,0.8425285621473676,0.7422310589788924,0.7005219384204019,0.7236596718249454,0.6621114677657206,0.7872438749253424,0.7907203485807383,0.7590417353239051,0.8625284804764229,0.9705387608954229,0.6067444147117732,0.6440681559363827,0.7149660157004151,0.6258910534661047,0.6804723688772981,0.8349452091147948,0.5106128158110342,0.5144716791038862,0.6952476925207313,0.7233062630154296,0.7649397026845527,0.9765232094426154,0.8198065823227049,0.6529921853658543,0.8415490030960581,0.7758218994598519,0.8276699446526049,0.9613373361913223,0.6067546653687924,0.49549403750545495,0.7727497027704219,0.8096524926365639,0.9990257928897005,0.7226509745302682,0.5340757122070215,0.7815654030459246,0.7427875864337382,0.7023254072596122,0.8419350470728547,0.8606299568079577,0.5983090783742354,0.7076326619278489,0.6732686598123495,0.7025390565401904,0.9226004103347302,0.8094247480561881,0.42283634195833775,0.6330035939689743,0.7728689255494537,0.7708566827558377,0.7694053148434713,0.9726382642489738,0.7669954421130635,0.4154738377629902,0.6771037501405702,0.7548076481473424,0.8188488985388368,0.9999999999999999,0.70306287935452,0.6373032666549198,0.782863667786524,0.7014049939970949,0.6978884583740018,0.9065259993141167,0.7057169569462617,0.5673259519064512,0.7260517570133497,0.7191759317517957,0.8131354100156566,0.9844804690616465,0.6840250770525743,0.7278871692878596,0.8162619545312203,0.7574268943802601,0.7730950092178138,0.9221117689600186,0.5937282991537193,0.42152904618214626,0.6707944274506058,0.6998017167559846,0.6781418713013702,0.7602944200617402,0.9245644355427672,0.5790813418259756,0.5129065905121474,0.7084263634354403,0.7515809982343399,0.9599513150845426,0.7725426076096308,0.5112860657423007,0.7762995714871747,0.7598675930577935,0.7330817980997836,0.8466384772730412,0.9436202210866765,0.5747955318962527,0.6421703724078384,0.7327815935959493,0.7221547340263451,0.7917587185896097,0.9886261116356395,0.7086991135172033,0.6538440449400705,0.8073822748154343,0.7633631041517107,0.7423248100547145,0.9080349422147288,0.9319699112719547,0.5597167196660796,0.681640967024817,0.7526364911560045,0.7866045227997708,0.7952593462004877,0.976844230033456,HB
0.9450144750968608,0.48888736168285396,0.22925703410357,0.1894059401604633,0.09616739144568665,0.2841524240089739,0.7159709324990164,0.9754205508003186,0.6055615292288239,0.23868642997236744,0.18546939782198701,0.10152907408124534,0.185298214762339,0.5656204514346992,0.9762314561514946,0.7923522966815963,0.33001766286100853,0.19442628129508632,0.1249872254971498,0.13290785007914607,0.4733852124667244,0.9208345124867525,0.8591643240292564,0.3902671684907595,0.19624096864850782,0.15272475326742763,0.09104879990193271,0.3165578303732086,0.7694744264401505,0.975210004463791,0.5813836914108923,0.22824021945381867,0.16967982311874286,0.08355155033821737,0.25263908735287055,0.685921303855793,1.0,0.6757060389432932,0.26764857530500885,0.17353434967770687,0.09386494571189563,0.280194960592973,0.7115621022761169,0.9528020224372573,0.5725659202015323,0.23356705207200168,0.1972453852724929,0.12027075159242107,0.20227470828509309,0.5877982513433531,0.9465564486795413,0.6777268090401836,0.2538580886877899,0.16118038791251732,0.07911644538219154,0.13582104584795185,0.5172024174192387,0.9081909237343246,0.7065529931211127,0.27036301317780875,0.15219774199499048,0.09703610119659412,0.07995592387335448,0.3870032598097939,0.8340894126149443,0.8463628053359735,0.3900492579060202,0.18528053062505956,0.15786403983116948,0.0955248480611306,0.34117532682625074,0.7965525364210815,0.9469591846496905,0.5265177020174028,0.21310951316345994,0.15512371530670954,0.1095013266297733,0.36250694717305,0.819453533637158,0.9488233306002956,0.5135362894741904,0.21879313914109288,0.1613294049611531,0.09777608303958307,0.31975740312778655,0.7725784639285127,0.930094415853794,0.5049872290381785,0.2217695820623784,0.18857768794839536,0.07172914627250071,0.19026755920487748,0.6006361257503621,0.9848095448726237,0.7572718081480319,0.31049096466036175,0.1895437424370925,0.10443778451005858,0.14051880848588905,0.4805279620492242,0.8939595504856757,0.7538525604309936,0.29875193822638724,0.17397139361406766,0.10599613743581826,0.14398108776510443,0.4623435721453255,0.9004117814946961,0.8292490290842516,0.3824195388914715,0.20508894309316306,0.1332393981751412,0.2021778066057036,0.5249394907662281,0.9472832425430397,0.8498359042893648,0.3823412652021314,0.20982333751572768,0.13903029197971706,0.1183878441284898,0.4000926277053338,0.8478357718093552,0.8962157213655657,0.443674422336654,0.17452660892807859,0.03556563734383,0.05120709581491889,0.3752136027531954,0.7720063552707146,0.5943754993826056,0.20315658021952854,0.031208930287305092,0.11706022951422246,0.15982976617387679,0.4185953164528462,0.807406887746267,0.5895023874670922,0.2109444426795999,0.06278507904645392,0.13071301775759725,0.15908063089878755,0.4983125003747768,0.8113076947671094,0.4941885214804387,0.13203817252444283,0.03105567619284455,0.11471536468431398,0.14723070805642502,0.5314420500128818,0.6649056945111378,0.27462092867898247,0.028559964272411364,0.09263566095908216,0.13308189029863549,0.3112304799208825,0.7308586018891652,0.6062021752939888,0.19453898519584034,0.004099514980061003,0.10260652471547549,0.1400766125283277,0.29091720898469764,0.7117335802954341,0.638761313794469,0.2221865146255999,0.02866137229942689,0.10570105370432326,0.14782067044248448,0.3781067753578542,0.7754433676780099,0.591160267432435,0.19998530542262127,0.03905319126864926,0.11339845095755208,0.1620716551259751,0.5294273039370647,0.7384652709611443,0.3656766585431641,0.07037345166893116,0.06453378349095162,0.11832350141459469,0.12077174760905418,0.4974389907027257,0.7222612546325722,0.3537456394242189,0.049079327702739484,0.01580502082877544,0.08539875664589314,0.10923923024715854,0.46167966514215064,0.7506055413844666,0.4154784089978729,0.07245793912052467,0.0,0.09885477008711585,0.16024870169616112,0.5444205017420625,0.6889218519868561,0.3002049939911915,0.05162709932860321,0.10411579656523307,0.13954074485221057,0.25555871912027883,0.6661008784563984,0.5866821894290783,0.1920831877375473,0.029860344712348885,0.11904072740319571,0.15833595758814556,0.4826759134037275,0.7835884389657675,0.46041854813922356,0.10677130192084117,0.03795745787468241,0.12114154743603511,0.1823273613629317,0.5769281769766939,0.7435518144358484,0.3472417473971525,0.05653694869017589,0.07774998764841734,0.13263980569471912,0.24786475608920777,0.687097570920834,0.7797708368806973,0.3582895657951144,0.058664508330587894,0.08015904927213846,0.13220035720062562,0.2926095674071243,0.7309251933669332,0.7085925774948796,0.2808157686680808,0.03892844263678197,0.09757221093955515,0.13373392478914625,0.29640393271153087,0.709748214753859,0.5930383533329098,0.21267035247256505,0.044087041802850946,0.13064904444572312,0.16533516430246542,0.33776165129441016,0.7419208728421309,0.5936998929522601,0.18797207641233715,0.01970488521209046,0.10877306733629544,0.13298138146910565,0.17278844018021555,0.11502117039677806,0.13716468443512242,0.4688690500219732,0.9265545606184795,HB
0.9996229167917746,0.99959335515687,1.0,0.8063240106386124,0.7351904440688298,0.6715608273615469,0.5807142034975358,0.7683730409336079,0.7393624830912918,0.8515636312523361,0.7682168925517053,0.8986686219621861,0.959978827280103,0.6660308866419425,0.7466029226224159,0.8489032087820642,0.8504117282920111,0.8678437198111496,0.8279073508096845,0.9162467273755849,0.6915912559331129,0.7733580750772667,0.8715035607696825,0.8198062349353575,0.7868091822387252,0.7405196686059837,0.9107795261449793,0.7721384130816263,0.7204491528639468,0.8873585202221378,0.7942741764319649,0.8274606380065802,0.7855754802355842,0.9129130858161724,0.7945270646306176,0.680336876367084,0.89228029767621,0.8118684220940483,0.8526543165716393,0.795628826078444,0.8967163347134804,0.8435821116156615,0.5744674351027853,0.8016048970341151,0.8371419937635737,0.818846155065161,0.8208165543117626,0.8262629721644698,0.9474173406396157,0.7178839179083208,0.8149835501755563,0.9106019511970073,0.8466476209658281,0.833696589543052,0.8118923428978769,0.8875454545287359,0.6252891900449523,0.7005286521220829,0.8717826507411574,0.7727560858978925,0.8120168171572032,0.7566929064234743,0.8764837482349369,0.7178866898780046,0.5755804730239665,0.8631865685904622,0.7955318154129253,0.8161767651602304,0.778930620716373,0.8720250659373509,0.8174923398964572,0.6176258514297132,0.8690227047321345,0.8263261408151331,0.8484756861333392,0.800310115225685,0.8850631823128824,0.8426197377096257,0.5404934005625514,0.7678921952254193,0.8748471447094427,0.8543149527646751,0.8499413535608508,0.8156216908545025,0.977334558648847,0.7991496756333888,0.6186146707684316,0.8910881269000147,0.8132457381350565,0.8361171344164963,0.794641792151363,0.6155540983923807,0.5491160826061622,0.5640402684223532,0.7595793030641936,0.7430922865850843,0.7681401974331513,0.6202388599387684,0.21983231209220333,0.4022093960908998,0.8381703886479374,0.8615422717452755,0.7336840116275501,0.8174345155788006,0.7613681541931115,0.7132355488578407,0.29823994988625124,0.21765731180236492,0.656490637149823,0.8557626492153169,0.733577732812089,0.7930752812044318,0.7407606466255882,0.7570378294222814,0.41663885617012186,0.19512344254083802,0.5828454505987638,0.8368118644069843,0.7221893410624652,0.7653627283838137,0.7168416276853796,0.7370357529223966,0.42226902554335244,0.14537273908583181,0.4957172957847834,0.8128176695874268,0.7154355402036506,0.7344531112741318,0.7211057873241468,0.7297959962398307,0.48827220217958345,0.1209304425284321,0.3792437359433395,0.7865458837777562,0.7719504834989136,0.7426493665924191,0.8048359748183896,0.7740623772160687,0.7355264123760409,0.32059802830446216,0.28414366725624685,0.7228918059980817,0.8692219768585691,0.7290054403073815,0.7786514086271487,0.7301194441599129,0.7700447399581759,0.4320699999421783,0.1588584019395889,0.5121672378082666,0.8405917077494846,0.7611883564397136,0.7718187605977075,0.7659792905610446,0.7495228921953759,0.5917677975713987,0.1711772346105841,0.3026422069847222,0.7480853947430869,0.8206269496770032,0.7262242303628462,0.7677323716526602,0.7165826367030214,0.7135085965645428,0.31791813218893916,0.25044614589977343,0.6821375569202498,0.8160775143666589,0.651217256666888,0.7490458055792565,0.7482331356881552,0.7888612459886285,0.5244391570364456,0.18973282263829827,0.47751311913644867,0.8367383958983673,0.7856599344358114,0.7931319656443893,0.8059729034775732,0.7474418146554133,0.6111928305457855,0.17208290902179468,0.1861108852379353,0.6548566864410664,0.9167623752728701,0.731578566020601,0.7486535611656039,0.7566728238565158,0.6555791292905669,0.5862643811526213,0.14367981836281385,0.0,0.42147051067810704,0.6661355387127744,0.6775568259261172,0.8726514738954202,0.9510775766224161,0.8766293716281844,0.7301343085194293,0.29948091297546975,0.3824412293157976,0.8144759720327305,0.8491123649584228,0.6995414708170581,0.7468350994177063,0.6955718894044963,0.7098568691325896,0.38561497089083197,0.13535221002324271,0.5077038957850409,0.8095161245433785,0.698275488614119,0.7293603118736992,0.7717318624464861,0.7362933719136172,0.5608274944526935,0.13249548414332202,0.2513968189233041,0.7132227218041082,0.832925781777554,0.7433898547513581,0.8102330530707248,0.7486906715723268,0.7383270326690846,0.348719241218893,0.21479064253023628,0.6301490505254891,0.8604758855017364,0.7426212384722713,0.7750079471790162,0.9164742184213636,0.7628993979318394,0.686123937512069,0.9197130192154858,0.8237125106543329,0.8587611559134379,0.8063845018443329,0.9012705972068918,0.743530934986213,0.6181947111728378,0.842518473714973,0.8041656729683834,0.8291826974955802,0.7362230900492334,0.8483285048435029,0.7545483240591125,0.5635159377825788,0.8113504635960546,0.7631318451994714,0.7966721628225512,0.768888280932814,0.8920197258512564,0.9361405596125757,0.6661207187256598,0.8711691687670763,HB
0.9325314387302598,0.6300242959079735,0.529609369253657,0.7880974480376303,0.8433174180867801,0.8046827803058768,0.8429471901701263,0.8991430828443981,0.7633475481868125,0.46575121874735914,0.45097471023644553,0.704483013891921,0.7396987818722948,0.7497187807789844,0.8350294837776867,0.8844262308722955,0.7078703166398738,0.4092153567969491,0.4431554311752224,0.7097961036206101,0.7942243091311222,0.8288376803063696,0.9210359592461702,0.9855161713330137,0.8242549709080521,0.5209308351536099,0.5380696563121529,0.8047902293353438,0.833773233284434,0.7702929901454508,0.6796316118240007,0.7092715860678606,0.6804012213569782,0.4120033229166513,0.24569183873980915,0.49652573730082317,0.6760359950641269,0.7173419707466103,0.7660409479950857,0.8526619652215525,0.7761067431022509,0.49666882342607477,0.3280609574727119,0.5631876600461261,0.7151177807216651,0.7309497895131983,0.7737446919901695,0.8695847086930854,0.7911383170525544,0.49429533825401495,0.32897774076037545,0.5762790281308288,0.7366667051138437,0.728245516578433,0.7835798019187034,0.8904177388618303,0.812774007958566,0.5160884592267494,0.3269568471881137,0.556865253589387,0.7375963428163461,0.7368820794638286,0.7685566778071075,0.8498611337591365,0.782061105892864,0.4855995954321468,0.2460347559988566,0.443228444287035,0.7062197896604764,0.749819006830634,0.7547935747846398,0.8385864959607227,0.8286313591828512,0.5930191192128217,0.3334714443905853,0.4847185284688338,0.7115430664506194,0.6672416811902564,0.40393857238273134,0.1590871613614941,0.3272849027031085,0.6535553880830177,0.8154435961731125,0.7648644204581384,0.7146224367799683,0.696165098501378,0.5952475459730014,0.29273452277289846,0.1000238312107285,0.3407396815935154,0.6697232860505395,0.8117276861495638,0.741820751759719,0.7013945155255193,0.7001904876229168,0.5602881296832792,0.2392888020679214,0.1838446324159113,0.4968370217376217,0.7908013783538518,0.8376151883213444,0.7252548661626329,0.6862123814531412,0.6836361280883113,0.5226947608956254,0.2261146988764111,0.2996643306217506,0.6263761021131604,0.8246992772438478,0.7871856890519388,0.7025616605409488,0.6814638438386839,0.6167492292912099,0.33183972567844955,0.1851580449313721,0.4524010590965529,0.7424838815954319,0.8065318590252645,0.7140697300406614,0.6723968334090448,0.6252617695631382,0.40999843477578213,0.10758941584199827,0.1782206123321708,0.5029654689483997,0.6727589688424441,0.6454632647308867,0.6726402192334223,0.7743535234882278,0.7924805401103613,0.5934115614496193,0.27534172034692594,0.3007582810084095,0.6320318609621556,0.9064000326978324,0.9299217480114262,0.8150340761797527,0.772367433875062,0.7278054727981372,0.49126456247837735,0.19789396806204262,0.29975717116695,0.6248613972366891,0.8363336227558008,0.8157912124754113,0.7166007960078015,0.705067353089907,0.697639586872667,0.5026239512698898,0.2030936792730863,0.274377580654543,0.6060819648342297,0.8382601059442826,0.8310997799092782,0.7591770977947151,0.776911147646585,0.8027246364827104,0.59178113146421,0.35729218377228267,0.5423633558781639,0.8613027989641514,0.9535161259330337,0.8066429194469537,0.6296357367156682,0.5742463381631029,0.5700175650365744,0.4023819212898594,0.10985947758103232,0.19601130685206775,0.5277303771866239,0.7596024385467425,0.779392555424799,0.7054748408330282,0.7205703072821559,0.6694868732554102,0.3779102855738423,0.11557341907201557,0.2696608046652289,0.6109293209571309,0.8282330791985729,0.7773991409363011,0.6750323399050827,0.6467892692376013,0.5801237883836883,0.2741491933064636,0.09000959877155773,0.3343999158217522,0.6668259806032079,0.8349122664708074,0.784892435243291,0.8091655848075933,0.7672251196356631,0.5809671286641528,0.24824178798279417,0.0,0.187133463464913,0.5216092155164667,0.6259639557452804,0.5374116531477577,0.4336949095980144,0.16444327410108323,0.05892493691003642,0.29771480262147354,0.5762426921288685,0.7819139742483098,0.7044231561761465,0.3736854037408468,0.22971223835492277,0.5014488679656113,0.7034013978192453,0.4959558857748413,0.43393707367521883,0.7291971033698283,0.8508961065574839,0.6666665963090014,0.4051844736669411,0.1364734424133593,0.16512341611898945,0.42744224334095915,0.5851554701758799,0.6532132051607582,0.679047124385782,0.395467098958433,0.1851101049872803,0.39819953566997857,0.6975167566212894,0.8433620171091397,0.8384722277867146,0.8457170565587578,0.8618405278982103,0.6569198499851348,0.3459047945982152,0.35577244757948123,0.631340125643979,0.6919325702197913,0.7106700150830102,0.7955053072279098,0.882733146346372,0.7631570680979455,0.4542604509381091,0.35017534330191324,0.629611871056787,0.7689938664500752,0.761763411800184,0.7627750537722485,0.8410038205785967,0.7542103906197494,0.47665458633740465,0.24726663259588566,0.43613560860434397,0.615213581022644,0.6155176380841813,0.6638381618770262,0.8411263722492414,1.0,HB
1.0,0.8935352222848105,0.8992153417563467,0.7591629793433179,0.5934868302750065,0.5321154244942274,0.3545893191541376,0.6732186601512704,0.7066581204099665,0.6095482794424951,0.6473621636870917,0.713277211337306,0.7587753318523802,0.5572665697874739,0.5747913292845475,0.8427809223581941,0.763932957811225,0.7314804784596265,0.7441395982638044,0.7825630252727631,0.6779840969291264,0.6000589404393488,0.91128197735698,0.838225792761162,0.7760222786797359,0.7930582561925221,0.8476661022160918,0.8045069951727872,0.5386690518849178,0.8198609754000143,0.8633751566658665,0.6486689367357128,0.6040049286260274,0.6328730988273472,0.6648900426939091,0.634404237648416,0.48361027076653684,0.7981052275441174,0.8144938622976792,0.7016857811039618,0.6837941461415293,0.7005350968221764,0.6896683708292897,0.4525335059820401,0.7146291144777579,0.8002850468696363,0.6696261911954413,0.6745755789161896,0.7086422551744769,0.7695151003039622,0.6443719600856874,0.5534659893977065,0.8502202941777823,0.7678822673937069,0.6712921574626654,0.7054788855208982,0.720582919424166,0.7728063044468807,0.5767330481788413,0.7402537584906339,0.9702603459410519,0.8446467755974632,0.7869216473246556,0.727366882066903,0.4935354791838673,0.40694484659658103,0.2540951901879489,0.4595633555518197,0.7193222342020782,0.6872612457233092,0.6788679190751177,0.6996293228576813,0.7767001523926713,0.733814564699176,0.5554953499954491,0.8377978927685503,0.8238919218699503,0.7299879303132464,0.8011340351352683,0.8282008400646195,0.8499057913669286,0.6298292603573343,0.5721206795682541,0.8257128827105147,0.73364138440453,0.696347547193001,0.7014295454026649,0.71442743858724,0.6520201080101184,0.45181746216756435,0.7698411917981609,0.866858509708841,0.849204917084379,0.8846246350666549,0.8163854386574894,0.7660683532545765,0.6087007224047389,0.570864899349917,0.8401364842052783,0.7488360930859792,0.6896622942256596,0.6808108050398665,0.7092397843729148,0.6451056737532057,0.46535327278490835,0.7801418873159283,0.7959193995851224,0.7126658361092617,0.6770870574357697,0.6883338861757586,0.6860107877069557,0.42564038974455576,0.5949218061482191,0.7259278846633497,0.5853244937587339,0.21456197351852735,0.17460981770681894,0.5378430897793915,0.5964305808197787,0.585643071998855,0.5981323443073121,0.6794053919588801,0.5980621594675894,0.2216883281465689,0.34092774101795165,0.6070338744918233,0.5915614376031013,0.596223259828129,0.6010403895348628,0.6888087627159707,0.5653766348660807,0.28943020114503604,0.5499350491278725,0.69090196770158,0.7777597017103748,0.7694201564851619,0.7516776409499624,0.6259082374518363,0.23710778104011832,0.36738957803659744,0.595667402245367,0.6011335939800411,0.6010656731361173,0.6191302173662145,0.6936933648065811,0.40419198488844765,0.27844204768884273,0.6605624116233626,0.7539858990708788,0.724228809841208,0.6717177442061448,0.6742688707600029,0.701862602613395,0.3713670765494306,0.42123213306963025,0.6845969814570307,0.6292608039912655,0.5831948789562293,0.554684721237352,0.5843218702233757,0.3829062660964442,0.0,0.19100350592714754,0.3097354498521563,0.5138564558091274,0.6841824600700237,0.6944367333353778,0.807914224255287,0.629610450520476,0.3484585721821132,0.6010079887023649,0.6419104886248013,0.6093946171842752,0.5740622789320868,0.6311768495814949,0.6111542910723138,0.23887975121855343,0.3985124911439435,0.6455170730432043,0.61527676057085,0.5923786524944954,0.5464569132515926,0.6586322643881299,0.5473794446852298,0.2060881713909244,0.45506223535905166,0.6190218102481548,0.5922156932329212,0.6000145691951988,0.6803838320822284,0.6590129563868716,0.27884057570690723,0.36676964230923303,0.5723945579048801,0.5269563846857195,0.5082153804453231,0.49355620518389065,0.6691329274638953,0.6332367010697157,0.2474113671996645,0.47532263546587705,0.7611316080753316,0.7153386952603391,0.7031700614839713,0.6749251646575036,0.7457251090671284,0.5762542394334487,0.3568917098640463,0.629470586387193,0.6659257483239203,0.6361435822734682,0.6252889744990875,0.6903288476416334,0.5423169583321852,0.22432793593306144,0.5067394091400268,0.6352669626578749,0.5742916361179131,0.5145074543380765,0.5388785756690004,0.552957193418953,0.19495703519950647,0.1725813169506183,0.4704917762522607,0.5303338920810301,0.7477116631936371,0.7935469715822552,0.8381239062032178,0.7251924672684793,0.42693873053816933,0.6560059779760077,0.6967322024297276,0.6473921369805438,0.6373044202997717,0.7447951195390075,0.7617495696478489,0.37904357644523134,0.2999875076893277,0.5943120433208176,0.5673017741677158,0.5311782127878031,0.5143497205239713,0.582012875579978,0.6311684254741019,0.6983710616291998,0.703082354046654,0.4927087302196216,0.8260417795210611,0.93449919418945,0.788447570241861,0.7498032828666643,0.7804498613444948,0.8307611512452286,0.66092966353244,0.8458856981083778,HB
0.8821090076572793,0.5538138582111432,0.8450175238281028,0.9268628362279385,0.8882474123387143,0.7929705316295459,0.9274108227225761,0.5808930832780368,0.4137100492897745,0.8156418194013575,0.8738206631895211,0.8340899319828681,0.8653412409898247,0.8495025617549217,0.463164761940692,0.7219119168833832,0.9231466770546846,0.9163180830893778,0.8614970878470547,0.9610006451575412,0.58490525017454,0.582506571053121,0.8845013280621845,0.8673788226905088,0.7878075988983111,0.8194786625788966,0.7297572540658834,0.3636217592014206,0.6676772917796177,0.807672262396329,0.7907026899565193,0.7419969773041817,0.8785295808634153,0.55614466005851,0.5332305511611855,0.8660664214636011,0.9323577370500546,0.881776755126231,1.0000000000000002,0.7518131954969733,0.5493807492088598,0.8875110863618556,0.9325262518642179,0.8673333808286092,0.9043318676520371,0.836832993108916,0.48100939585652847,0.7475486355768941,0.8743993508134114,0.8549616346038904,0.8810465481940313,0.9039114275301945,0.44073549284615976,0.5043800372966738,0.9022315455970469,0.9280247473436274,0.8101568191972579,0.8655534443109472,0.8138073403609762,0.5183644646843402,0.8123707324235958,0.8463531252818497,0.7850208460655568,0.8480073054736257,0.8032568262720845,0.4227337568184164,0.7082783094048708,0.902694594324766,0.8907840377451837,0.8378871578607601,0.9556623143101881,0.5837820379348597,0.33717064719245693,0.7597380005300238,0.8550522340874636,0.8453254194525532,0.8124914551457423,0.9165149982911418,0.5246047453155234,0.4730600262818241,0.8364193322515769,0.8631599664296339,0.8253695130342391,0.9269453865970074,0.660910198907555,0.5003692882701285,0.8646487115593573,0.9367396224882378,0.8689288728634101,0.8732091751741315,0.8242329927455592,0.45299570929895294,0.7403576877243438,0.9158581648741257,0.9326164816618399,0.8368330162160669,0.9534768471200599,0.6814697019780034,0.5492439997001759,0.8221900755792728,0.843761348250682,0.8346339115443533,0.9199009951656663,0.7151087714621653,0.38068084294062743,0.7574108775830515,0.9355861619204535,0.9146641906004203,0.8678156692409262,0.9525866126543943,0.844044586435335,0.7460244799265185,0.27854407025421946,0.10554347479794912,0.5869672901881391,0.8454035203541641,0.7307616758167932,0.8439698878576378,0.8323615997882563,0.5449241974021422,0.08520735318541717,0.40670218524225743,0.8230876741175297,0.7520958418485388,0.7658213437830026,0.73283269806243,0.5054284484523262,0.05100008022770064,0.37495327433360104,0.8425100589299406,0.7668580503796056,0.8330706125132943,0.8178609912726802,0.6978290493118076,0.1748944182602179,0.19989998062233139,0.730218763578377,0.7836404993043395,0.7886981228453902,0.832583820309919,0.7854560672754285,0.3617211062698549,0.14804672234722127,0.6535878352297524,0.8286758492945709,0.7606835872030475,0.7863608430056177,0.7265090402960641,0.24573097949912603,0.0,0.505106241606391,0.8312394812589188,0.7003579281139933,0.7698356668434594,0.752353693853556,0.5172295406148502,0.07211515260503143,0.39704937434312537,0.8397274798055132,0.7413578237788203,0.7966927785958571,0.8033312780209128,0.6337260734801076,0.14087208747974245,0.32982078253034297,0.7868583410506786,0.7108255038479523,0.7422999432520594,0.7674363465631677,0.6033690332488435,0.13726663538556805,0.38902812259537733,0.8241319544018444,0.723073971850577,0.786489763194228,0.8353552540519311,0.7179728966789074,0.2061239393974026,0.2025356605827806,0.7379500211045913,0.839589065601585,0.7497556519829172,0.7944091315265218,0.7425561327608701,0.3376178972386741,0.13244468750000649,0.6402388217348918,0.8573929179106614,0.7613558146015886,0.8503707352908376,0.8186622993789363,0.5354711223752158,0.1331455751498396,0.527462559900991,0.9043107112723099,0.7949659362854062,0.8563120377136724,0.7980284387246324,0.5449834929174715,0.07352986176905363,0.36781721587744887,0.7824810659767782,0.661206448501227,0.7128874259465372,0.7146699654246185,0.5584554292876653,0.06817826712284503,0.26141974938915946,0.7254013613387371,0.6924104774798812,0.7279675462227899,0.7698027105257819,0.7087696810870951,0.2317265587258288,0.23602279985920838,0.7768718163821864,0.8363184162248143,0.8009381520397738,0.8471603886330141,0.7758249362151279,0.29846809560598664,0.1899029466292066,0.7027448080306029,0.8093120755452772,0.7459651321645697,0.7916396780719086,0.7503315162860409,0.33411234757603103,0.1594891702264749,0.6598807700673992,0.8090821063964462,0.7186864143060581,0.8398879183107362,0.823810144536085,0.5160080682330956,0.13320670056598116,0.548015615847065,0.9040919558486953,0.7961467678803327,0.8206058097375035,0.7724159385445881,0.602521590762735,0.13629471169418306,0.3895356446042535,0.8031428827817539,0.6889804809149469,0.7497440487599489,0.7674727592531749,0.8878520218296344,0.5392295513592433,0.5278071381083378,0.8586320627504429,0.8851367936458419,0.8730682033388539,0.9488922577483689,HB
