0,1,2,3,4,5,6,7,8,9,10,11,12,13,14,15,16,17,18,19,20,21,22,23,24,25,26,27,28,29,30,31,32,33,34,35,36,37,38,39,40,41,42,43,44,45,46,47,48,49,50,51,52,53,54,55,56,57,58,59,60,61,62,63,64,65,66,67,68,69,70,71,72,73,74,75,76,77,78,79,80,81,82,83,84,85,86,87,88,89,90,91,92,93,94,95,96,97,98,99,100,101,102,103,104,105,106,107,108,109,110,111,112,113,114,115,116,117,118,119,120,121,122,123,124,125,126,127,128,129,130,131,132,133,134,135,136,137,138,139,140,141,142,143,144,145,146,147,148,149,150,151,152,153,154,155,156,157,158,159,160,161,162,163,164,165,166,167,168,169,170,171,172,173,174,175,176,177,178,179,180,181,182,183,184,185,186,187,188,189,190,191,192,193,194,195,196,197,198,199,200,201,202,203,204,205,206,207,208,209,210,211,212,213,214,215,216,217,218,219,220,221,222,223,224,225,226,227,228,229,230,231,232,233,234,235,236,237,238,239,240,241,242,243,244,245,246,247,248,249,250,251,252,253,254,Target
0.8256696221295121,0.7436084586713216,0.6852617648909989,0.7212912599809485,0.7826539332989697,0.8012729230783429,0.8072685728390512,0.785049376608953,0.7390591619389648,0.7358394113500244,0.8010376688250311,0.8739178409753412,0.916197014642554,0.9427913491224806,0.9113729852512364,0.8258960752944875,0.7201567968015319,0.6017216874953879,0.4846884404980034,0.4796298306707205,0.5934357851449146,0.7250532569550587,0.8559502179127236,0.9522234191105585,0.9479081162304801,0.9121849158527395,0.848783641301514,0.7658832870130732,0.7567101885178482,0.8217895425670398,0.8690551332318799,0.8968716981586382,0.9071095696423626,0.8819686632076584,0.8396437329029929,0.8239173816414016,0.8730218230279607,0.9366737800273486,0.9839022426054929,0.9999999999999998,0.9638612699701927,0.8747166035695748,0.7638910487059916,0.6476309205841904,0.5259126126983096,0.41186695169744136,0.4378933505249092,0.5622862675252767,0.6851622126535746,0.8133918496666974,0.9326016756129187,0.9921061559146958,0.9590575281762239,0.9166792841010227,0.8413724848390152,0.7540182321824698,0.7325491571216702,0.7951995520692126,0.8448786259908869,0.8575621418855814,0.8443756865967054,0.7992030698284862,0.753094832735749,0.7892766409847749,0.8636051912812086,0.9186032732484015,0.9592524465155206,0.9603743387891466,0.8940346289546992,0.8025368917398941,0.7076830033487134,0.5896317879039612,0.47100072873517695,0.43645873932342316,0.5425800970953538,0.6733396312129682,0.7940652448826075,0.8978466664418996,0.9745947229485374,0.943361508226418,0.8899474361846396,0.8165258147595591,0.7296768494426271,0.7019643691777253,0.7569298209251347,0.8157685763930622,0.8535809988870058,0.8803269194810828,0.8309988954989274,0.7791227898515742,0.7838020487158042,0.8434434799344477,0.9054556471050661,0.9415689031772481,0.9356944450846483,0.8797293157316706,0.7848557832857266,0.6679843447726792,0.5410495180210166,0.48804259193516386,0.5922141301814097,0.7157962633578576,0.8396540021765115,0.954304797635283,0.9899410218084117,0.9357107714664401,0.8856248711699239,0.801024831572742,0.7404570038671909,0.7860089250111029,0.8453023928707639,0.8638498409937301,0.8729012551670012,0.8482099994392664,0.7970030551116845,0.733776510411442,0.6603292284722768,0.546228849346176,0.434462215143139,0.4380907949228525,0.5511946357350441,0.6657767018905292,0.7410233391266725,0.7885604208405279,0.7980846945775857,0.7814721608184165,0.7336627576131127,0.6778984451821473,0.6869685229061069,0.7735541748444221,0.8449753067157786,0.8661556705623086,0.7841900623463884,0.657545620738204,0.5352664979233583,0.4048152492884858,0.28280689556333494,0.1539043186461444,0.04074685857041649,0.03090780299673601,0.14080976897610253,0.26827305479815466,0.3975637591631458,0.5193640425396733,0.6393847501837813,0.7515681167774113,0.8444366433458173,0.8715324365064714,0.8451514357526928,0.7876236974316797,0.7217518762391928,0.679868515104171,0.7125034087643443,0.7684356957437319,0.794316092407674,0.7736068037244237,0.7345066515864713,0.6638867580822898,0.6293724848945608,0.662044809172915,0.7455523111773676,0.827136596257952,0.8597466983663173,0.8022437589164253,0.6800960775594203,0.5549248126251263,0.4250331166828254,0.30304825730644724,0.17151578701893366,0.043600750796485066,0.0,0.09425693269641111,0.21860551067449352,0.3407862146865457,0.46712956760162716,0.5884357380228262,0.7089299715459967,0.8153953673868244,0.8856031666057704,0.8822044702881142,0.834085331521593,0.7701135682822506,0.6973011851904289,0.6701201776870513,0.7212868321362105,0.775112617058906,0.7881571565818482,0.7634978413847271,0.7035170271684088,0.6598781815831607,0.680898780024825,0.7654087632515296,0.851369991113091,0.8884129954291071,0.8519946690162661,0.7461359803612735,0.6190744843888434,0.4938466419184351,0.3681853890047091,0.24267547652860255,0.11873067349529909,0.03889759692284267,0.10290456600284448,0.22495987386536354,0.34884804184224083,0.47740271643012266,0.5999998213180302,0.7270019184550891,0.8402288905173425,0.9202035650171931,0.9279481240152865,0.8905627689611373,0.8266383540220128,0.7641176525995934,0.7360877117838018,0.7821794005363729,0.8246698692683265,0.8258460149729439,0.8022240375060019,0.7448142479280457,0.6818357741266092,0.6859496367235691,0.7564340256206605,0.8362311152626825,0.8765516586637594,0.8366466385519045,0.7155979706671334,0.6009155202032026,0.48989840430087317,0.36945519268707083,0.2391799845523086,0.11255806895635345,0.04069971335967537,0.11477941991223939,0.2346454135313396,0.33616624749559954,0.4619123573038799,0.5847037602447418,0.7040417787542637,0.807113614909899,0.8686495017133031,0.8488042067594004,0.8056997484541097,0.7365370433500187,0.6687560154934464,0.6462237779056175,0.6959346805063669,0.7384162411846706,0.7405021938172383,0.7296643866310977,0.7051980046976303,0.642353069831205,0.6161621032321956,0.6708176613518699,0.752536610974275,HB
0.37724335499108663,0.3771516210684879,0.3601020431875078,0.40077049547864985,0.4632472154430146,0.5313576975315545,0.6300056086406643,0.740054879203827,0.8504836453353882,0.9555724596402141,0.9951705910176617,0.9056621666600605,0.7919652903411932,0.6778739856625212,0.5621518577656858,0.4442439181111998,0.3312343811164854,0.22483827599158068,0.23581455564399156,0.32665281691533365,0.42532961966586147,0.472385753284121,0.4315002059437575,0.35971387426231416,0.3585832165017565,0.3629064740923612,0.3526348784632186,0.3941532008651706,0.4617595489587317,0.5308471829567422,0.6245423393253388,0.7260814580986074,0.8290229983120591,0.9351500941711538,1.0,0.9315850804929199,0.8194608515490464,0.703625529904197,0.5857863039419949,0.4727374678836077,0.35500369340068094,0.26008710929852785,0.3029306732188396,0.40513506843041724,0.4697348967150198,0.4404420019802143,0.3661909470050738,0.3295175482889511,0.3659707683058385,0.34788593577480065,0.34241821331607214,0.3972928106874797,0.46381659674534326,0.5311162972541673,0.6292554060672849,0.7383377040511799,0.8481009468310267,0.9497182059873929,0.9636188242512586,0.8626085598434982,0.7437837773995973,0.6262755987493723,0.513149156011912,0.39507387247168346,0.28090224960196697,0.20835775461519812,0.27803177468286433,0.3828627631241205,0.4564010643378923,0.44238705521727695,0.37706021768216436,0.34807626778161105,0.3820397043831766,0.34883801349541266,0.3456313134521204,0.4005589538801738,0.4646812208438743,0.5392089649461739,0.6475974157085974,0.7603364832110272,0.8701530637563358,0.9640292873773996,0.9487727914807101,0.8425675544622652,0.7273477877220372,0.6130074895611729,0.49413748541189506,0.3750344997898615,0.25698556764349456,0.19155547960152164,0.2675907042849862,0.3717571276453161,0.4606736826871368,0.45981176126211254,0.4024111744150126,0.3375197371457034,0.3682376856259063,0.3765850795495319,0.335825501719487,0.3532425367161852,0.41389378892615436,0.4767505684109167,0.5630008873163413,0.6676365829484033,0.7782299368072015,0.8897491001739909,0.9866362612186109,0.9729162506068957,0.865576129894634,0.752650533385223,0.6354978657447196,0.5222827168112009,0.40520220330646606,0.3107162974469505,0.35419929441244424,0.4444361062738179,0.4700652078060371,0.41666665053469176,0.3532251292205696,0.37610125262693794,0.3724961093451057,0.36717518305522134,0.4253608407139454,0.48642015724704024,0.4807878415520096,0.42143554513121984,0.3445341513919217,0.24729699363544844,0.21495800069103044,0.28797748820515967,0.3227333922572516,0.3365159575675004,0.2985272763344994,0.3199959247859855,0.39848318097570623,0.4284036621975905,0.35365505900806904,0.2474161247528065,0.13696455855250733,0.035311552959115144,0.03614055986911702,0.14090904157667794,0.25385313554196676,0.3720096017236537,0.48824698781461906,0.6021423553415227,0.7159792535055293,0.7412778645106096,0.6435816418156487,0.5351422183296856,0.4518044879976041,0.3900974318953411,0.3264819572607146,0.29426222026753346,0.32202748577650475,0.3434576777776809,0.29738444845961476,0.33176947069925833,0.4033437335503264,0.39308948538734734,0.29753159080540226,0.19051748513347777,0.08057077364325649,0.0,0.05169283198719554,0.16281382793978205,0.2807560943418762,0.3874403009364701,0.489972679422901,0.5962456944281472,0.7081708012575271,0.8109706799250141,0.7884761052930965,0.6824648813566602,0.5739226454066516,0.4761226776198305,0.41384006476790824,0.34855296160929095,0.30291396123402936,0.3110302048417225,0.3327296529549918,0.31126130131750773,0.35966410806188487,0.4181732196745328,0.3795665075739062,0.27681930377679664,0.16698047201955346,0.06012739053017302,0.016796043336558597,0.10641800636599064,0.22244153684949175,0.3361659575855359,0.4533278897849714,0.5664363514265526,0.6838890264086172,0.7592116110410106,0.6913056109692904,0.5838829020978799,0.4957730913453041,0.43266321674665587,0.3640677834219349,0.3055978043941109,0.3043866731597761,0.31445976833596323,0.263286981316042,0.2797473000190406,0.36014429235304835,0.4270854541489547,0.3919299921914893,0.2865724566689104,0.17775721547230694,0.06806357803358398,0.013632237947744374,0.09296292307012177,0.20456321554036727,0.3215543837064546,0.435522854616336,0.55166819460202,0.6707213398940352,0.7895619675365141,0.8792672486983163,0.8266924188266705,0.7171966689940591,0.6078523086086877,0.5154822606014237,0.4479220626038184,0.3802513037768346,0.3235710260444592,0.3130037183782276,0.3277795632680135,0.30052653307080524,0.3379342650765057,0.410289473403021,0.40589716150398025,0.31381996773427334,0.20192141336489355,0.08930124042046528,0.0013200465306483222,0.036528956266169366,0.14750937326041458,0.26293335849813804,0.37739824161901303,0.4962507127869601,0.6126230866649053,0.726255333108181,0.8210937768681185,0.7735407200486025,0.6594762556616834,0.5537560848640416,0.46837944311563817,0.4105553675782262,0.3489203200944767,0.3231965310684176,0.3388032734698124,0.31642974525910106,HB
0.871320110796779,0.8354622433384533,0.8023976893948832,0.828130899475467,0.8521223467856116,0.8497472759009024,0.8504963517299455,0.8541213347109982,0.8395669665024859,0.7966435618516079,0.7553717254811452,0.7659105364524759,0.8029219022831007,0.835079501947928,0.859678221745642,0.8815772630394962,0.8895441422352335,0.8650961481463191,0.8087179232231305,0.742192228912955,0.6696650882553128,0.5993430779707214,0.5296815752670101,0.48189246144886083,0.5244302976135276,0.5966406847515127,0.6701504684980528,0.7394963081103965,0.8105091164688327,0.8833709923738653,0.950991670159647,1.0,0.9700415916606462,0.9160546466767232,0.8914572107048144,0.8555803358103871,0.8240973575600277,0.8476705204137824,0.8724148768014499,0.8661034268705978,0.8565494157138416,0.8511059551841897,0.8532687961683301,0.8324485553034862,0.7906612667907307,0.7471334376860872,0.7449750262385701,0.7808352234362881,0.8149954314101515,0.8434781191410567,0.8668304486674807,0.8813323762590202,0.8691555095136196,0.8245172404358285,0.7653022354531374,0.6991188517080538,0.6268002542460736,0.5591040495342203,0.5368221358522516,0.595463985906524,0.6688857249225939,0.740774080559925,0.8010157697744185,0.8676297372908475,0.9358188011152597,0.9916886343423461,0.9697200303153513,0.9141984568281929,0.8862074383136092,0.8468450005066912,0.8225719724507703,0.8513397395489717,0.8655737008299085,0.8587245597067776,0.8554947550954157,0.8596565387518731,0.8441603388987171,0.8013413753882668,0.757555192698055,0.7604517968768674,0.7947122476228194,0.8268480332900319,0.8523632893367401,0.8717754480116271,0.8798056186454122,0.8529756200982328,0.7970180868433154,0.7302760241603012,0.6598341601517983,0.5910458902424085,0.5177178232587554,0.4478708122248944,0.44188719456714715,0.5057225024522354,0.5791394949367394,0.6509883119304722,0.7196981574707897,0.7928828416127163,0.8629630910209756,0.9326375901753294,0.9896569066936491,0.9713590276266677,0.9141791553034484,0.8816206709029986,0.8451389853971316,0.8162473134693262,0.8419897933696352,0.8658307773708971,0.8619681430963417,0.8541667968022315,0.8565234715832113,0.8528600855841595,0.836926850015751,0.8308362604878794,0.8362376850247797,0.8406990099086913,0.8261704899414928,0.7895820341964592,0.7836838059089848,0.8235318880426066,0.8626654073557689,0.8777686882560378,0.8378991728273297,0.7692463441470796,0.695720685913896,0.6219908540139176,0.5482609961544491,0.4745447366695584,0.4030777087230277,0.3458557925516164,0.296372246816684,0.24251489108939545,0.18019697738155221,0.12911156083586867,0.07296191325117973,0.00763994584397959,0.0,0.06386342683450302,0.13235902289582563,0.20445656673737372,0.27734685248696306,0.3457214180592541,0.41828657483444937,0.4919687161375576,0.562956508115233,0.6323222173697032,0.704974373630628,0.7731260945162692,0.8352369989109627,0.8579656652081598,0.8454341068261948,0.822676896830999,0.7946952924357751,0.7593952270339708,0.7278461212648668,0.7276435057660287,0.7704379331047473,0.8176165048328423,0.8386777962191947,0.8372509034216773,0.8390666646947891,0.8436901971127346,0.8217078387997303,0.7893035572813456,0.7999197844152368,0.8476129598654063,0.8772123654676602,0.8704805909983253,0.805778585840909,0.7343717260892573,0.6653763842645557,0.5919621990281556,0.5183268268549337,0.44810529900809043,0.3780204226845881,0.3043999596016664,0.23134283356494562,0.16289148707250717,0.09057457383960438,0.020922609577405105,0.003569777204912694,0.05952768086761001,0.13099926460445738,0.20470755049471862,0.2784374083541869,0.3521672662136554,0.4258918561011374,0.4984038529493668,0.5667850611719412,0.6395895412415558,0.709318657443724,0.7774434928435054,0.8358521220545114,0.8595171437037414,0.8477532081199373,0.8271914740133421,0.7986240844387211,0.7636814224167927,0.7284333715837004,0.7116067888097775,0.7460635282853991,0.7985844223024172,0.8308363979943434,0.8306054179850666,0.832425307840658,0.842172981052735,0.8448338050583264,0.8151554130502698,0.7865069464008594,0.8082393907039782,0.8535070588066982,0.8777875033221256,0.8569206913738607,0.7972370025917908,0.7242773295663603,0.6505481933256845,0.5768196312350644,0.5037535799822919,0.4352951189478879,0.36297672054475966,0.2892618883217895,0.21692235062179183,0.14847400419059992,0.07550785988557379,0.01245222916044364,0.024508998152805828,0.09044755313684755,0.1609062825115533,0.23442478525332705,0.30422754937099145,0.3747365578988902,0.4483153832435394,0.5186627541282125,0.5886182975134027,0.6620831337650104,0.7318044861266992,0.8017184826111292,0.8567343667759031,0.8677254846433842,0.8483558475421047,0.8232553637925732,0.792681571317229,0.7550440742880484,0.7246239694265879,0.7323449521405669,0.7778693776781314,0.8226287387335331,0.8336987734006678,0.824940307159185,0.8297490762255266,0.8282147329773053,0.7963490289444037,0.7699380981853772,0.7983846867490219,0.8434037983236742,HB
0.6852246930306616,0.7000446234980728,0.7661786676483464,0.8839063109537428,0.9784100409898282,0.92169986017656,0.8004452367902215,0.6654013879009257,0.5327739084966865,0.39763097461570807,0.3747722790115562,0.4929689791937957,0.5911269084553621,0.6553525364977477,0.6602169603220189,0.5642515484681803,0.4959427537310108,0.539172564396305,0.6076016135497575,0.676854495982536,0.6617812642341878,0.6411078411827043,0.5987293274370464,0.577906859027256,0.6357682862657432,0.6693280991857162,0.7111297128253096,0.6962175953670955,0.7298142412140014,0.817736314880805,0.9056143334889133,0.8914162275685595,0.7698486027672051,0.6352433157715152,0.4995236160648573,0.36716902888752845,0.2568795319558821,0.30622759920723963,0.42401336940200807,0.5292660473629356,0.5959415311690117,0.5573816760460697,0.46820453266701456,0.449818277810369,0.5239205274088525,0.5847152862612988,0.5952224221012656,0.5817210016095626,0.5563567773542983,0.5552940125603945,0.6152548084835785,0.6610687359348217,0.6873106163383045,0.6650798994374103,0.6974573541447877,0.7751584357351611,0.8651971968276237,0.8329990000226704,0.7111446558400725,0.5746898969738918,0.4395157909417233,0.30560455434393186,0.2621958872230272,0.3774287032831274,0.4902660137671173,0.5894176534938529,0.6239471570176578,0.553402671927052,0.4852954689497131,0.5068914429350189,0.5691672732149398,0.6310597716725441,0.6294666035749099,0.6303862153683228,0.6144319991782718,0.5722081990424002,0.6227218392694862,0.6802057522349942,0.6930483771722553,0.7068765673896271,0.7143281063874656,0.7765634954007576,0.8942184501280002,1.0,0.9687417262270044,0.8447146083622536,0.7140650227858756,0.5806106904815849,0.45489795536330346,0.4306983890409364,0.5303075697285928,0.6308355878549077,0.6757341065030951,0.6048709911585979,0.5221403128803654,0.5207625646398237,0.5775645679414185,0.6416718644281443,0.6672936952812796,0.6302013481514894,0.6469253098801029,0.6124249438787266,0.5800500482148223,0.6299367581201878,0.6830438765960709,0.7019255573475625,0.6965714816191206,0.7412003715337727,0.834326113912915,0.9283952348859499,0.8887017839408067,0.760353083780676,0.6254179526658543,0.48993618398774963,0.3605652029283415,0.348738295210266,0.45923733398186073,0.5619217070990241,0.6193066799131977,0.5757096617669801,0.4883816857315213,0.4934923865523011,0.5272630524473954,0.4688648905454502,0.35275341568865004,0.222489966051028,0.1999783783731126,0.3113877523828261,0.39436795821395254,0.3315248201893821,0.2133541255323621,0.18833070415180897,0.2833659048016117,0.41350209839615104,0.5107285712551843,0.5322235258531505,0.4435547808406377,0.32315638301311633,0.1982570570592106,0.0897724811783831,0.1142322514679428,0.24290981995194105,0.3829131658452165,0.5157750085605115,0.6523490082218744,0.7710838645913372,0.7571907226667696,0.665748050309777,0.6269388604655881,0.6205878608336373,0.6137400051463007,0.556465539783292,0.4845300122510894,0.46553923358187976,0.505380265998574,0.540773806301174,0.5684251349646732,0.5433288713632183,0.4770168954335796,0.393407335921641,0.36948569682823384,0.4439182205311689,0.5339323522413251,0.5538394884589586,0.4522218631056192,0.3444886523956203,0.23071852321220954,0.12308052733939645,0.16566079972200098,0.2935068947475181,0.4230652522848839,0.5546036347184993,0.6860652569407995,0.7777497691671234,0.7089115714201739,0.6312170124313412,0.5982690173801801,0.6080467609113653,0.6126622722868009,0.5619294048398147,0.49392878288340913,0.4981768420535886,0.5437566111711809,0.553671035710448,0.54147630339039,0.49028055811316706,0.41300864073793164,0.3986517112017838,0.47354014446844284,0.5381628334697566,0.490539157773743,0.3741107899587881,0.24270675338836645,0.1113892090548616,0.0,0.024317046301881584,0.142977837854795,0.27698720128038,0.4094635393127235,0.5503640089730668,0.6902248429018258,0.7364755381365407,0.6673509634962409,0.6102370928410714,0.5901323840488182,0.5813789190535528,0.5839138751817345,0.526140720967331,0.48360658500166487,0.5024750427043303,0.5211553105982878,0.4976168446422764,0.41588233565288046,0.370754752283486,0.41073563919381906,0.5015309280986133,0.5214291962656099,0.42465067774573884,0.30520941096034004,0.18339753248809876,0.0733689223430718,0.0669280176849203,0.18747950695305615,0.3270012311022734,0.45950189198575586,0.5922810999028107,0.7140737172996086,0.7116391547169245,0.6429341064639833,0.6237238948970214,0.6030067103007086,0.5765479587494644,0.5245292936620931,0.5047872987317459,0.5515681029806352,0.5740307192081859,0.5826776197976287,0.5127699038043145,0.4558790018434826,0.4028469830951513,0.4521416383494232,0.5329252140552754,0.5294032830763009,0.4361517296066264,0.3156197709402675,0.20516115538515578,0.18316738855433456,0.2950036444251336,0.4313528112147287,0.5639400535543779,0.701703308837994,0.763909101437874,0.6700431014939308,0.6148748528140557,0.5949436124030254,HB
0.8223998263045784,0.8743764270054895,0.9117949037652746,0.9328868732508617,0.9236706394965015,0.8545725419230745,0.7515668800913828,0.64475819438637,0.5533395859613184,0.45436705020636214,0.4790445388354212,0.5910707335720615,0.6993830548904834,0.8096015077621757,0.9174762971347161,0.9780530518250252,0.9511893137358296,0.8966784982056817,0.8261867149806417,0.8079025560403807,0.853121768521766,0.8835331653193941,0.8817852452352883,0.8807484982274905,0.8767287575960392,0.8390064956240764,0.8022407911354357,0.8256162407965388,0.8740914391461243,0.9207648849184875,0.94854736007309,0.9572997974108866,0.8919238448718221,0.7866817650162354,0.6762264089596977,0.5662909408265353,0.4592045821844206,0.4309480064658491,0.5331830793049959,0.6451584976370697,0.7549149076638955,0.8609421200775742,0.9596783205792216,1.0,0.9638543201500034,0.9030302962877728,0.8389942962179071,0.8269171061667051,0.8783929395227466,0.8964022098305668,0.896491440677659,0.9014802920931935,0.8740354295060699,0.8248632849105921,0.7842018845174823,0.8095633949427015,0.8591849308695214,0.9005963207606071,0.924638761064168,0.912425902918947,0.8432862037690549,0.7413130715571918,0.6299972183690463,0.5201329187858934,0.40878428281603085,0.3770614493060518,0.4770681433541253,0.5947757303293877,0.7118454795709064,0.8200733059292418,0.9190552746023273,0.9628687133676181,0.9209051516126894,0.8704003045152793,0.8080621475924983,0.7983234974503648,0.8524914993508403,0.8743391427050793,0.878836038738072,0.8788892663089767,0.8618574806310573,0.8168620096095816,0.8117753255288762,0.8535550653045805,0.9070463028746856,0.9484765138148492,0.9724151598653701,0.9563649064868649,0.8656550426436915,0.75902053639029,0.6465193426947258,0.5376929978951515,0.43374621348065845,0.45386651957338686,0.5611966968664495,0.6739036718755311,0.7832227221408004,0.8904095116976021,0.9784268205545357,0.9857879474691362,0.9451773005128876,0.8738567652561429,0.8307547389496297,0.8625853183399754,0.9039280257667412,0.8954489420742227,0.8890735788189281,0.8806510303653003,0.8466682935804433,0.7955102818954178,0.7792334401621512,0.8096224591936925,0.7682581280585103,0.6854848030378311,0.5742281578774067,0.5121109844885761,0.5566716255274324,0.6655179329610543,0.7158756746847825,0.6326332535685106,0.5323524320176296,0.5158962148141069,0.5951035688618771,0.7032241596324518,0.7743175965787326,0.8190739719532352,0.8420138769689998,0.8445894099859244,0.8497977750691974,0.844158877967621,0.7912882558437766,0.7773265736624153,0.8213959844404868,0.8954560071273718,0.9338423354537202,0.8759635051751373,0.770841294881214,0.6614810488495966,0.5504013911522005,0.43804227273595364,0.3274331476826302,0.21176117917352277,0.10494615431445742,0.04102958021882852,0.10801128718501807,0.21684197320394683,0.32787017501327687,0.4396327086791143,0.5572657159360928,0.674501475357768,0.7838607486404738,0.8887054925650166,0.9362230635334474,0.9152685154589588,0.8719478168869048,0.8184869076303554,0.7759939442559864,0.767078272935064,0.80975764034363,0.843038650586331,0.8381092527774818,0.8346887855085101,0.8014455443554267,0.7434107997776322,0.7432250996902388,0.7926821116544782,0.8558553456642768,0.8777553792662998,0.8042780485963781,0.6978119978271713,0.5831467862449935,0.47457651011484536,0.3601000106419028,0.25131162249038796,0.13805232429938874,0.03325181756555562,0.0,0.09037922286452105,0.20112195084119344,0.3157655973020703,0.4230530447543803,0.5209302253303232,0.6226060280947934,0.7324933967473797,0.8340826358941711,0.8807510882923273,0.8556786741245994,0.8123841768679059,0.7630549558490132,0.7375477290101209,0.765847474055017,0.8207446054271994,0.8503972783097895,0.8516622240072258,0.8541087476975617,0.8415384995705701,0.7880791699684346,0.776417795770469,0.8280040113639515,0.8956955542330882,0.9327831602280399,0.8671609682692059,0.7634720732311577,0.6491451913152735,0.5390946404884691,0.4259537707013037,0.31209675959668837,0.20282720175098068,0.09430403029535306,0.040704517379842375,0.10186709782960501,0.20062416653349047,0.31571203711379137,0.43348135072687577,0.55062362981192,0.659810637350777,0.7693310195981216,0.8720296828666232,0.9165127150080887,0.8935635412105278,0.8492916872964056,0.7985381521204831,0.7601993609677189,0.7664593454826596,0.8159765157893593,0.8456821209325112,0.8487746378199224,0.8445139144668072,0.802718670819369,0.7582331687148001,0.7702738205611936,0.8295546241081708,0.8948051923989171,0.8750900746799868,0.7792555209234595,0.6693491413812755,0.5610265781050876,0.4447311899123809,0.32695228243666485,0.20925064289227846,0.09668802656463682,0.008890080117633925,0.037636846510648914,0.14184429126910647,0.2563612880977304,0.364909366849018,0.4810062244183413,0.5906079004962879,0.702781929381405,0.8086892414368338,0.8827315953125283,0.8860341361219137,0.8601449899421212,0.814948157989174,0.7672272694043505,HB
0.803323297043459,0.846591966905422,0.8962274721728547,0.8577241423697441,0.7568007314327923,0.6374013797256519,0.5781549420340442,0.6619318526458682,0.7537389131339984,0.777676077014577,0.7302390075145642,0.6503697069394709,0.6141236519854392,0.6619117660917406,0.696162047810966,0.6787747527348271,0.6263690508437887,0.572901101348414,0.6158295644159772,0.6882777985811868,0.7501022603306526,0.7963058113740056,0.8254166881041769,0.8840385566677651,0.8790425756125844,0.7760215241430277,0.6584881907987921,0.5616583799750008,0.61160098933235,0.7220699560213384,0.7924772932968973,0.7825809827914494,0.7243702928320603,0.6397010954878355,0.599646518279116,0.6460007044601954,0.6961530232892623,0.6868945029906794,0.6345402635704129,0.5487055150620601,0.4740632998200378,0.5036561234286305,0.5756593779066019,0.6463292121331263,0.694932854952564,0.7314466329253122,0.7583772489370602,0.6948547431240351,0.5813767528353275,0.4593472371010381,0.3526362734916286,0.3669208396129311,0.4838908449727253,0.5994756465585884,0.7001482605235494,0.714855994067793,0.6709010951741035,0.6008453346040183,0.5759137705000006,0.6198783249970532,0.6521673076175056,0.6508175804815011,0.6069650931694461,0.5542129582064992,0.5861111123561158,0.6511762103956866,0.7271550006337582,0.7762778585292129,0.8393836157172325,0.9037053128584169,0.93765317479094,0.8640749402335373,0.7471510814179956,0.6302606103522415,0.5245271477009483,0.5597237784037157,0.6751703862864713,0.7768668559551242,0.8111771706335786,0.7721796195552195,0.6972613933282106,0.6564842352923037,0.7226362111673752,0.7840321493228699,0.7914994327995339,0.7856914492598972,0.7716914793400207,0.7062029477163496,0.6901400636166768,0.7524126748864446,0.8219137136518317,0.8770314310415386,0.9140479948855091,0.9630984622605991,1.0,0.9148929572020315,0.7993919442199515,0.6831221033330235,0.6743214444848937,0.776771973271106,0.8557911871990536,0.8402055824909951,0.7842828292193449,0.7047201102347835,0.652147027075836,0.6830568112626811,0.7086961861000041,0.6914862932322183,0.6412925713941204,0.5875755900519635,0.5307900748401426,0.46003891876571523,0.3688114752788638,0.3284202754269987,0.4138625881461113,0.5042426891507166,0.4692812483510018,0.35809739449103617,0.32146808667633286,0.3934604304299547,0.5081547456811804,0.5751744649736916,0.6224264068832004,0.6507075498618531,0.6177254914235735,0.5800562387833326,0.6250213433751051,0.7035404736575424,0.7726318515546606,0.7891460102372712,0.6953935076872404,0.5786309421234246,0.4559535735367257,0.33643695323616707,0.22154423661006084,0.1659173119922539,0.2470761951914331,0.3627242509475692,0.48632859733734324,0.6031821815754794,0.7261310694980612,0.8402343728049408,0.8835468124385173,0.8580715464064768,0.8160718007356103,0.7523270011861625,0.678905006331513,0.6266192748356896,0.6558145240926314,0.7188891131491251,0.7381776143097278,0.7449712226990601,0.6891432728176086,0.608459118307648,0.600284330821574,0.665926097521182,0.7384307328162736,0.7407779650015267,0.6394963305993264,0.5179684344920066,0.400069668708094,0.27801733680387897,0.16831003925918298,0.1518155985412104,0.2527244046580768,0.37019882905157475,0.4903858148509428,0.6114438879708124,0.7297683183386918,0.8363661327901641,0.8283875602472195,0.7668145623190945,0.7117236360941495,0.6494995068900624,0.5779991660944979,0.5119133373153999,0.49397566968041806,0.5500802537685274,0.5973539176062279,0.5992374053250842,0.5743930275377376,0.5287607041039237,0.5343533011120645,0.598508313606049,0.6572009816188604,0.6284597461137218,0.5195894994940176,0.40319048152212855,0.2798893393109745,0.15387471394281227,0.03681034257168614,0.0,0.09225353101925338,0.21058877249847607,0.33459970306048126,0.4511720949905622,0.5727717752413386,0.6748266480365577,0.6866602541087397,0.6494228863678893,0.5930860662094104,0.5243609013499406,0.4542355178977533,0.4091875170833432,0.4471149321275414,0.5379655078613421,0.6133187188619327,0.6432429358938325,0.6094858323851073,0.5554973800040348,0.5614742523436824,0.6266888530719807,0.703309953603096,0.7326102563301164,0.6741260063552472,0.5596054693988237,0.44061365093514215,0.32096842261417713,0.20321096654240645,0.10834012403169258,0.1463001832157511,0.26518803020237813,0.38335902484926243,0.5045693495140415,0.6233870001922095,0.7380658062915364,0.7787784327771119,0.7513140721738005,0.712731404862144,0.650236832720827,0.577158993881933,0.5196295758323295,0.5454693325321722,0.6102977829491238,0.6415525957543302,0.6110194540994405,0.561943595757445,0.5803741912899234,0.6602074544521987,0.7216023324184397,0.695504406528046,0.5875155040481901,0.47177155097994605,0.3493506527097585,0.23282768328932568,0.12095391729737681,0.11514542498964797,0.22146359869463073,0.3389852904365045,0.4612730221243304,0.5784559807448986,0.7035896026203106,0.802414698428747,0.7868058072671409,0.7493698968499656,HB
0.8920602693152082,0.9041518983680419,0.8698089283387609,0.7863678675203052,0.6724411889556996,0.6034504381546899,0.6579366192730034,0.7307518683438041,0.7869459080698213,0.8247106882889077,0.8011905144417919,0.7493697675177717,0.7178916621544964,0.7241640184989522,0.7190704563834225,0.6248477378779973,0.5042113314683041,0.3671014434821611,0.22843115494794297,0.14610663030424131,0.24705847942911285,0.39021253402794187,0.5402176577220481,0.6829496308346532,0.8200886376248508,0.9367612307405109,0.9708485193854237,0.9369023865520409,0.8722166748604097,0.7690567095228591,0.6755687058064823,0.6979690903404601,0.7744510696386322,0.8672958135672282,0.8789424243331112,0.8788250531239896,0.8532163036483302,0.8438099214567756,0.8444083632965742,0.8497087477032523,0.7960547598769256,0.6833311255545627,0.5535936347019534,0.4178053264164219,0.2885790580709271,0.24993603238668882,0.3695004462138569,0.5240591750127233,0.6777501503567249,0.818542701068075,0.9465525614459027,0.9950408789520475,1.0,0.9609757652792594,0.861225887774018,0.7475038371514668,0.7209389406078341,0.7946828900423335,0.8465973747235398,0.8696671786739798,0.8394603464968107,0.7715023510808638,0.7314304234974323,0.7503887847502524,0.7398265402762405,0.6622679599050776,0.5423591934394043,0.4173660720318182,0.273988821061375,0.15382397049362995,0.2080352383983004,0.347563837992777,0.49355966456192224,0.6367855075563109,0.7752730797690237,0.8655150537132759,0.887282461479812,0.8629082372451968,0.7757260557798218,0.6666621319828145,0.6110618605420091,0.6641664500091831,0.7363253061518265,0.7810794769710108,0.7769651156879376,0.7328468923211608,0.7253763918844038,0.7314070267047881,0.7382845930251074,0.6558940105607207,0.5181621155884959,0.385517278532725,0.25014681750268775,0.13561250543184977,0.1866416885036477,0.3297913869115323,0.47349925286532324,0.6200954141223378,0.7600483069872124,0.8918144433436561,0.9383468946732378,0.9143632993592119,0.8510645362532747,0.743852910209303,0.6451005195406059,0.6601303016926754,0.7335292772769701,0.7924408519815822,0.8073944469807408,0.7747339025418567,0.742688262906297,0.7511679007384644,0.75404554923034,0.6839962462748672,0.5651884295036713,0.4362558546980506,0.3023802021489024,0.2083823241679159,0.2895694235585222,0.438337119356905,0.5361471716884352,0.6585324030297741,0.7973239463233646,0.9240773769623312,0.9765232009055769,0.9512110028253917,0.9054217425118258,0.8590479323877798,0.7480311106218975,0.6239944799447708,0.47972520347225256,0.3318811450098216,0.19891001596297997,0.07776686324634241,0.020924950252950048,0.09463214934784903,0.2153250729361127,0.3506181799317343,0.4836226615767547,0.6145423079804804,0.6719432436403543,0.657902917478038,0.6739277914600539,0.7056541820230393,0.7305969136557522,0.6903388112227629,0.6146402328453697,0.5404328749373892,0.5484778364593392,0.6434205672446138,0.7522339351478813,0.8301027693045473,0.8392894062923335,0.8092790537993824,0.6923630648780454,0.5539242817996461,0.39979469262449774,0.24314026553081236,0.09757982948653643,0.0,0.0373966165948616,0.13916650712683376,0.2870039102966002,0.4266401903939663,0.5539844083699323,0.6489271851212459,0.6559006459653278,0.6587317380194833,0.6688566917681387,0.7060313183100164,0.6927635363242381,0.6191939386498264,0.5534042039262785,0.54709327082259,0.6241812456628386,0.7318520585832919,0.8123535308265,0.7975088042216552,0.6927584047105588,0.5523875896210537,0.40981058298895645,0.2615127538425104,0.1204833251236801,0.01916522530958531,0.054747246976782904,0.16657956803869922,0.30727163616689346,0.44107747254534324,0.5660798985454472,0.6540572148528763,0.675328459695701,0.6420967796490546,0.6701156371284527,0.7295621053462042,0.7880875018740587,0.7793248982472929,0.7539106917170169,0.6837963947832106,0.6105480396427478,0.646431834420039,0.7550346371945631,0.8620111660664431,0.905542512570594,0.8550895636441589,0.7273551631961999,0.583164820070095,0.4396787480713069,0.2888888363931632,0.15494114287028715,0.11615950029157673,0.19446738241551298,0.3179176101561998,0.4293785689210239,0.5583589606111277,0.6935085572932902,0.7537919563705997,0.7473432472652246,0.7564195223118495,0.7837914023041819,0.7786023608601913,0.7125635774202088,0.6347711233678521,0.574655388525477,0.6006718233974877,0.7007463810413164,0.8067335136060763,0.8678601490548963,0.86221665196059,0.7839994672126469,0.6337085806055218,0.48776319380425237,0.33767991366820604,0.19061548483529922,0.054317324356312646,0.0024460478656496143,0.07484367291740845,0.20442116647398878,0.3471194657078467,0.47869939017131813,0.5882733165154548,0.6289176774942469,0.6366400564274728,0.6531137840358001,0.6863605772113637,0.7326175916507718,0.7017568169008812,0.6394866954066485,0.564005186118449,0.525309249787357,0.5827552975847832,0.6937822703915977,0.77834825826233,0.7899400734483097,0.7200030456577959,0.5930721469357239,HB
0.5709291305794562,0.6403665031271348,0.678842107980818,0.6944606190144396,0.6714704607657618,0.626107567948706,0.6052102318500334,0.6419589757481736,0.7120663843330468,0.7665080761505729,0.8072255709275851,0.8188582758876755,0.8451670790682955,0.9308503222160271,0.9184594789138978,0.8142510910270411,0.6815274715669979,0.5479388498740287,0.49999012337617366,0.6149204000262931,0.7230001525974199,0.8043782466017735,0.8243725490523035,0.8118233499406817,0.750928818235368,0.6594281698336486,0.6067473181948464,0.6452843460035029,0.7154177596451379,0.7633346049902974,0.7934512570795285,0.7683209455505957,0.7306288617820731,0.6988593346573397,0.7313231236163689,0.7879148079123901,0.8374088116497673,0.8495655087681087,0.8749971589370142,0.9303365196136655,1.0,0.9421162497218347,0.8109199228640289,0.6704141129995871,0.5351083284263582,0.4479780978638388,0.5443651127793458,0.6677232252780567,0.7741753501231696,0.8607422859875702,0.8556220260681497,0.811954177003479,0.7382040050526442,0.6480750465707246,0.6037737855466574,0.6535749699618423,0.7121373047454855,0.7393998465058647,0.7351425648437311,0.685857676160273,0.6304781859280819,0.6293171186263331,0.6937492581663212,0.7321944684121715,0.7547124252393469,0.7853439959907242,0.8560845682240634,0.8662920139566692,0.7600156800925673,0.6292883840648078,0.4888929873290677,0.40246727230139845,0.49050564853557077,0.614100975640198,0.7224716248055447,0.776218057407152,0.770683398969763,0.7179818812778831,0.645085449073314,0.5675205844439222,0.5937364280009829,0.6762710792058169,0.7416614632727678,0.7852676602992323,0.7957740570769829,0.7636408019360763,0.7042181336399498,0.6723539634341247,0.7227110321845243,0.7824186613572737,0.8321736145270848,0.8458641781665364,0.8590197203175771,0.9187630025006261,0.9645239913335146,0.8764433867078876,0.7413366928493255,0.602356867456034,0.4577693032918937,0.4391254328382419,0.5472922456679661,0.6568138734786144,0.707031931695508,0.7073300151207733,0.713088296066001,0.670217851855901,0.5772403901832095,0.5108648219021701,0.5476356502749757,0.6313792579411532,0.6977821624351401,0.7206647194675488,0.6873626666103072,0.6189828344253416,0.5677266125908931,0.5497252383163516,0.5896190345485848,0.6463403040008382,0.6945747294608751,0.7151752550374755,0.7010947480838432,0.6217668674972572,0.5866240180463773,0.5593621855262878,0.5113212556494022,0.4513889447022015,0.4275806479182389,0.45467397842906054,0.5097445785965369,0.5748758772797733,0.6017356242454466,0.5610661595304327,0.4759005494698427,0.42395352501869166,0.4141131550325938,0.4870746315118031,0.5769430418945296,0.5943314909611712,0.5769332962361058,0.5043430904143955,0.3863988323466261,0.2541517135399607,0.11865665411374948,0.0,0.02304673103936583,0.15761278115533983,0.29953503172283735,0.43944328932031107,0.5755406458711927,0.7065692304228364,0.80936455732791,0.7551854022376263,0.724141177382903,0.7156035257070794,0.6974576090677655,0.6637549454885119,0.6021528455420646,0.5609329684172959,0.5685199350230734,0.6218243932973069,0.6707202976498468,0.6651234212176074,0.6210763174395368,0.5438132602135544,0.47333935066536714,0.42895277016687494,0.4906845352102698,0.5804716921413782,0.6440818046347583,0.6763813019246805,0.6293095923115719,0.5295975826606862,0.4022814197819611,0.25519126073499354,0.1192302865376429,0.023847192957625385,0.08542305528750616,0.21836607415164844,0.35963702858569535,0.4983293922786318,0.6333554629238578,0.7381767318210173,0.6929930767042727,0.637603957479481,0.615670060695924,0.593089083117718,0.5316892637453585,0.4907143303560839,0.5143750611291331,0.5708367091360556,0.6187460470500392,0.6311545388868485,0.6049475929241148,0.5461165897576072,0.49514405127079053,0.48629052153884267,0.5598534454197215,0.6527254032154208,0.7202056974186184,0.7459817762252037,0.6818665570126523,0.5633995623965777,0.43405354557178155,0.3007628676624665,0.16816730261948898,0.10961966203590157,0.2084519551874764,0.34402367578481474,0.48852239535669684,0.6245273500487811,0.771895518901212,0.8478685694727557,0.7743398866830495,0.7380536751912357,0.7169293470763849,0.6817602895004811,0.6333235313781751,0.5848886394027697,0.5944773989181278,0.6345040227611736,0.6675011426328195,0.6512086302962881,0.6026084704771986,0.5370624415480703,0.46378110338816336,0.46879938188922177,0.5462542824164678,0.6418802263686603,0.7014300458320886,0.7128676577563016,0.6553143577655764,0.5381519364312899,0.4115703574067342,0.2856023721487535,0.14747881426209952,0.027443714686655962,0.040323048383655635,0.17287767735217185,0.3112999006575339,0.460892900687921,0.5969362824289535,0.7344371877439886,0.777553432828292,0.7154785746294618,0.6874506491295724,0.6572736410507836,0.6167030649560492,0.546966803563127,0.49423168713921495,0.4963638314256089,0.5293935750992937,0.5701711472271431,0.5716662138567221,0.5254369476049874,0.4532633509171782,HB
0.8841217983516004,0.8480356883263943,0.7519124962621974,0.653052557825775,0.549822941489592,0.44563218367778556,0.34772463216423544,0.2737265148641671,0.33000969312642436,0.43357735617002324,0.5318485679763386,0.6362766248467674,0.734748973210105,0.8386921136278208,0.9370238910159591,0.975462813326932,0.9604932959658473,0.9786247933272944,0.9806708749070338,0.9446736942360457,0.8990914432288349,0.9308443512998924,0.9740968828386812,0.973091192815264,0.9671794920930353,0.9611026538656208,0.9205148232758876,0.8640638237153747,0.8257847080184394,0.8410151613784197,0.8623164503594231,0.8915437825031273,0.915130770666624,0.8851870758400683,0.7922102198266406,0.6939487761006394,0.5891295313715649,0.4904842243808861,0.39755712167309654,0.41083840057328225,0.5045509019360396,0.6089771417251876,0.707274484080921,0.8117236712255153,0.9151615050149945,0.9895994457708318,1.0,0.9556831685842465,0.9471336236157363,0.9284468566014336,0.8870870230501436,0.8279445784529494,0.8383061676442934,0.8803381918549581,0.8906671536196095,0.8934211184558293,0.8897900382209604,0.8471637276084772,0.7886840945043915,0.7626539964060796,0.7876803359017349,0.8255509036486196,0.8621572253691071,0.9012723329744364,0.9372684645956894,0.9010256412266672,0.8057690192101566,0.7049007668562147,0.6044364936647321,0.5022140225288713,0.40794585373334213,0.40054183608149996,0.4984605759629085,0.5984565072960172,0.7001731615445644,0.8001050596838536,0.8988824857866567,0.9845638122221002,0.9851631650106846,0.9643515226469944,0.9606885821860537,0.9377223752342313,0.8847910819046679,0.8331941413565148,0.8632932529623255,0.89531874706953,0.887097519370878,0.8815309898816793,0.8722805713139951,0.8350853111944773,0.7778097093218498,0.7509466360133429,0.7806095929401146,0.8175630161185031,0.8427662538347099,0.868351646627315,0.8608647934760606,0.7800924544600466,0.6781897791345496,0.5799830012758701,0.47494381153207865,0.3730644528817716,0.27462750110644374,0.2181163569779737,0.29216757316315844,0.39779440254832676,0.4969820948396305,0.5994873863534692,0.6986280858571051,0.7984032862075435,0.8937692755404659,0.951328449255424,0.924761954989873,0.9296206352921553,0.9243967428354408,0.8927569416710935,0.8475220879920188,0.8774386018294597,0.9267864273581753,0.9371019634958037,0.9133141557699239,0.8967535039393494,0.8974158200286971,0.8491099771470175,0.7955838524178803,0.8028271166715669,0.8642054173952359,0.8955664777521274,0.8896076742222866,0.8747098328110526,0.8082660502071185,0.7093487614456374,0.6032116333449612,0.49684106718325405,0.3946191012624093,0.2948218928722818,0.1888598631164652,0.08813143130221424,0.0,0.004481468754192641,0.09009359252344684,0.18475946413173594,0.28412894601747285,0.38231126292905937,0.487628027520565,0.5934227731760436,0.6864121984524331,0.7747913393636346,0.8222047143783221,0.8039488079479956,0.7732161765766733,0.7372890294688218,0.7140465521436977,0.7442840638836125,0.8030725581628878,0.8385096732413294,0.8462971646688359,0.8606205714418217,0.8498837340322462,0.7977997487536547,0.7680852612106545,0.8214421741049286,0.8855149296814308,0.9241659021903551,0.9306452408750338,0.9065778258081078,0.821744269994919,0.7242713138366988,0.6199648863029871,0.5135413683538831,0.40711391234413974,0.30243838575959103,0.20436248552728464,0.11401352631846418,0.11623281139241814,0.20243392620962897,0.2982058185617603,0.3972241129045332,0.4952228042244816,0.5953158387027827,0.6789617218411598,0.7782802936203371,0.8579176695379575,0.8550860073579739,0.8145142453054884,0.7800038320857227,0.7414588462533299,0.718336410030535,0.7453086838115542,0.804636005457488,0.8495504682456329,0.8582933994887755,0.8595039546417022,0.8535740667867527,0.8167337647990539,0.7671219182735941,0.7874237234157692,0.8519559124551533,0.8982367923246749,0.9175639065177982,0.9112161306303598,0.8635622356299578,0.7689640688154652,0.6675381313884771,0.5687737527154907,0.46310745361696803,0.3618656770178442,0.2611645912495896,0.15556077785016786,0.08517883564449191,0.13619016178285104,0.22875990537050794,0.32467029874795805,0.4254701614479085,0.5236828812851079,0.6279078100576375,0.7279407891965938,0.8248747372075179,0.8718665673368656,0.8493257631419046,0.8220396153079917,0.8043352970695538,0.7904642662135578,0.8220957660597964,0.8793772898208819,0.9234330133529299,0.9273150568904355,0.937676082966482,0.9436667795261299,0.8987398457062178,0.8435526313560934,0.8502439583939615,0.9115041371706679,0.9459117907156919,0.9349681132536701,0.9107868787605623,0.853567467609822,0.7684134098716241,0.6800645017588763,0.5801917619950964,0.4742089787440861,0.373927644232093,0.2722454996954894,0.1659091344353082,0.06260193035547779,0.021220156729830797,0.09130069338679292,0.1855937214911617,0.2818227818591589,0.3816751037493994,0.48265843509837103,0.5869961002512357,0.6852469258395316,0.7853098474082515,0.8394246053295348,HB
0.5552222363039234,0.6064592659990611,0.6804568483806255,0.7497734875587734,0.8105993544841958,0.848841219801644,0.8764980627078589,0.9308057256361326,0.9892054282521248,0.9424641254028174,0.8402167716527986,0.7366082392054218,0.6290654605447679,0.5736520138406378,0.656832476321191,0.7582932554173623,0.85717921020308,0.9188926073789554,0.8931678361626545,0.863292285142992,0.8077228457121552,0.7579087038413836,0.7720803792596806,0.812490833712811,0.8221593390898889,0.8312352748544185,0.8293901625381002,0.8042162885096806,0.7617159367932136,0.6977823290963552,0.6181764886281227,0.561845690276723,0.6009876880161595,0.6766444096102249,0.7431123165460221,0.7946048931171699,0.8216914770636954,0.8511376512766404,0.9136796634655091,0.9180325492838242,0.8303388092099679,0.7197145045428077,0.6085844974350834,0.5474704199249634,0.6185969438914845,0.7205291272931527,0.8125416451180236,0.834167162863946,0.8094726947007589,0.7641550920513265,0.7045115148636827,0.6999764692609658,0.7469090299639538,0.7779734424017788,0.7939833280368831,0.8021233838560342,0.7972059897013242,0.7698414097559059,0.7066753821669107,0.6312802474642378,0.5659317697866308,0.5975438139817337,0.6715793927424911,0.7414422978850885,0.7915055391066004,0.8233805278629147,0.8553973645082851,0.9080343701337232,0.9400624447685721,0.8676023721764514,0.7642681760093855,0.6611546110933033,0.5547895711285815,0.5383140301846268,0.6333880665231988,0.7361283712012086,0.8346343668383807,0.8833070980802724,0.8635689341469044,0.8271191663019375,0.7715064384349566,0.7492687805901432,0.7958102095414563,0.8447507641623873,0.8658418714340634,0.8739359974099352,0.8714675781056507,0.8489998509517005,0.800904897436703,0.7257596598082323,0.6470846773980841,0.6314820948126152,0.6944079434599977,0.7681965670471123,0.8237246618575529,0.867943120478951,0.8924324052289243,0.9362812099703557,1.0000000000000002,0.9680684227101335,0.8674002543726245,0.76440621775491,0.6539109800702856,0.5669321182298683,0.6098737492650419,0.7117862631932839,0.8137952332164107,0.903695241067344,0.911744207804748,0.8865358356510151,0.8404627163068408,0.7840700061608075,0.7664244426937266,0.8037251651104158,0.8015740864332386,0.7595575720274492,0.723615022703531,0.7303616815965566,0.7819993610884752,0.8418804976436924,0.8541640242615818,0.791572530614064,0.6902591642039515,0.5878823681579406,0.4838727280783801,0.3777170917807722,0.27090559855412355,0.16663125462606976,0.09568689848791045,0.15541474741003847,0.25757612293687693,0.36676236087581815,0.4788805087930601,0.5910152335385352,0.7017528603781067,0.8046856081849751,0.8934473695348581,0.8775555122803487,0.848519476143571,0.8209494532876491,0.7742128161653674,0.7103778657037052,0.6365133961490699,0.5774418758724049,0.5872215757923358,0.6627807354036228,0.7408820615171623,0.8008683290970489,0.8322729911270186,0.8355820571581163,0.8275836191668555,0.8094436513965582,0.7575089868672944,0.7051464475461637,0.6935234100873846,0.7477749429699816,0.8045045900660004,0.823392042823271,0.7640132011096064,0.6634107034725201,0.5526691234340844,0.44869462888664136,0.3403761263302447,0.23461877306570478,0.12877260480491426,0.04892784216983315,0.09491436272774112,0.19516077014581934,0.30505756809725915,0.4111507208661056,0.517011079289134,0.6161486376458374,0.7059571667976268,0.8095756257094597,0.83818482928249,0.8063457745024334,0.778591571765989,0.7393117014585948,0.6723278386275706,0.5973769250179812,0.5291670394392511,0.515422675593038,0.5764565304171867,0.6562616698077635,0.725810214326505,0.7517697832507066,0.7568589352163622,0.746810890574982,0.7232315950807089,0.6792290698114645,0.6361960066972041,0.6530317125175351,0.7178980478725645,0.7658260853307903,0.7755502087262605,0.7028314906343405,0.6009617133231655,0.4973833606805218,0.392133418922995,0.2891010102338689,0.17914121920263404,0.07632334410392283,0.0,0.05787135135230592,0.16591220639210302,0.2693161847024035,0.3802737477126208,0.4852197306259274,0.591982821165419,0.6958541243656093,0.7964244013612898,0.8150530257907016,0.7869865946985211,0.7586056228378142,0.7094948084532582,0.6463101196483725,0.5667448266930777,0.5116595163620308,0.5309756124058718,0.6066539024552617,0.6809670865213562,0.7415204716122374,0.7809905135710593,0.7900271935296288,0.7785332710146726,0.771602587347658,0.7309919881371123,0.7068658274594151,0.7437415866122843,0.8042449339804867,0.848644527869695,0.828121297424347,0.7370797323447318,0.6263318934584725,0.5163236321394056,0.4132412791556477,0.30539817448620155,0.2018872607058244,0.10233938078572113,0.10381416748419481,0.19718420634104095,0.3053460235681871,0.4160835591105483,0.5191613837979829,0.6291641017048673,0.7350590471729654,0.8354812446552786,0.8589912808333138,0.8298396977301976,0.8003312394411661,0.7511447903727857,0.6820191377065543,0.6085793102220594,0.5385322353773887,0.496049251049826,HB
0.9157696949611513,0.8571054855804241,0.7724008352775522,0.6732918740547127,0.5708048071577245,0.5045704242685292,0.5716979742296595,0.6779031049864674,0.7857147413728067,0.8867511673312585,0.981721918676391,1.0,0.9572119982921836,0.9120458748105622,0.8378974970505844,0.7927139398558569,0.8406202834657837,0.8806057468233532,0.8681382110945457,0.8427672307538314,0.8362854156993946,0.8185930007049806,0.771118106037191,0.7583387826340666,0.8087206937068441,0.8667399364364241,0.9082020911699722,0.9190260261473313,0.8828263438809243,0.8104973671253581,0.7340199974073713,0.6400626046261304,0.5331179084184594,0.46101510719472283,0.5201732021675911,0.6131453248104477,0.6992647961487957,0.7798834196906563,0.8743379577793866,0.9657288974215579,0.9726788178009573,0.925929501618233,0.8695893335247582,0.7925983883065166,0.7779251138907239,0.8369627325118361,0.8628899041797757,0.8395051572587859,0.8227783644307525,0.8150673306381309,0.8006996909452735,0.7615613655073323,0.7434897797299302,0.7901348052240458,0.8489484806250374,0.8892441144067948,0.9046923531687263,0.8733479817625094,0.8020980235076893,0.709695758661095,0.6097153439332965,0.5022745467007743,0.41411756586449067,0.44620328230309547,0.5520545715203855,0.653657007090189,0.7509794070551785,0.8428816369952994,0.9347798728579917,0.9414384813578813,0.8882355325996865,0.8529317914427332,0.77804684880504,0.753183515552313,0.8113038666009889,0.854018699300302,0.8468546517000111,0.8206246501510874,0.8020197413310981,0.7957970065455156,0.7571489582009407,0.7192722814087418,0.750961015726691,0.8116971686062702,0.8660032560343809,0.8946666557586234,0.8915581908323948,0.8344428781917461,0.752790112772199,0.6585701835502547,0.5572768023895265,0.44861709193096777,0.35895519246662233,0.4012989059782217,0.5034583709953573,0.607928273621966,0.7139492848250244,0.8162600588323827,0.9167437137926109,0.9496112680032869,0.8967650370790627,0.8509045722162512,0.7791892110299583,0.7379440763724718,0.7874737398284946,0.8328841689861697,0.8202845530782812,0.7985035189598102,0.811833927311373,0.8103748621907945,0.7649500210673124,0.7295110241263936,0.7613063233803319,0.821924516911755,0.8617000123888154,0.8243977612909628,0.7605538542576789,0.6956078439011819,0.6051090015303078,0.5224225324996454,0.5300787852371769,0.6178846142915138,0.6855801119836298,0.7346061261276862,0.7690589064685134,0.7633081247254938,0.7717526681136868,0.789914983849511,0.7584465897469495,0.7002062593685878,0.6886347886503223,0.7547536275571516,0.8285322871238825,0.8551040359127,0.7912185226731332,0.6899871676542422,0.5839936452003816,0.4746054209204802,0.36517702971200294,0.2558293516194421,0.1507430256733926,0.0529020491581349,0.026558629671220135,0.11179529262091492,0.21385889369832456,0.319753450948306,0.42902516918479416,0.5336525697997403,0.6367876450491468,0.7350652484122235,0.8202282752350372,0.8539923309737572,0.8324942189428965,0.7800230832674171,0.7179810471111792,0.6781287327967747,0.6969859044102078,0.7441530772421594,0.7609232281096343,0.768299002858458,0.7941591528516985,0.8105687613410595,0.7891940799858959,0.7240800614690455,0.6846318366258333,0.7312694659800583,0.809989974981558,0.8498502600002882,0.8163938132394368,0.7187835919842345,0.6105331430463701,0.5084704953918255,0.40176470058680813,0.2940450065804814,0.19246275196593476,0.08627251149853321,0.0,0.015511608212548711,0.1103088980037501,0.21851553603300622,0.3279409799257822,0.43736933817800416,0.5464833632624082,0.6489624400275693,0.7428611377017493,0.8201512186310496,0.8675882816382003,0.8573898608959098,0.811565621803382,0.7510153846790832,0.7015956985011207,0.7154613574297954,0.7545776738530898,0.7757981814042925,0.7789151595306192,0.8039277686179251,0.8119907071006851,0.7636959681683648,0.7065556001875117,0.7328790661632831,0.807453596546309,0.8697889677377917,0.8940750537903472,0.830004653970724,0.7218324586121434,0.6124786218246634,0.5072661126151901,0.40405932265870437,0.2977634327368801,0.1956281606990138,0.08889874561322775,0.013337286430348039,0.05376092350941808,0.15289308419572945,0.2590748655303008,0.36755699725929625,0.46929708557534067,0.5761215598383058,0.6781504992596692,0.7750340207403092,0.853521595860814,0.8773704025697937,0.8559986098154932,0.8016277208337874,0.7404576356827746,0.7089808950711001,0.7403935523295575,0.7876497523515986,0.8002959053373364,0.8059661507368343,0.8313163655621745,0.8364430690738021,0.7839670673768515,0.7377853114598043,0.7720196594669275,0.8503828952109938,0.9082826052035022,0.9046589536131782,0.8132199382285379,0.7116869950276346,0.6041625978845069,0.49474328458037475,0.385315604316385,0.2765553321830394,0.17457931092068768,0.07978963566052921,0.08165074127788241,0.17774250912129097,0.28334349761821565,0.38608424510251016,0.4950884714435686,0.6012896221898367,0.7022316668990285,0.7972582770662107,0.8720786912462744,HB
0.8680443814778216,0.9612127986037082,0.9999999999999996,0.9149089509704291,0.8064748218210696,0.6875856407173608,0.5832182542477975,0.5816461259418562,0.6817435140493084,0.7593139097751354,0.7313556106664336,0.6509073837564139,0.6239161976419267,0.6142197181753373,0.5872983860093828,0.5546974951804127,0.5469499810802745,0.5843520901872039,0.5892863312580245,0.5769673729153011,0.574452477482041,0.540437976213644,0.511319393305997,0.49005424337949766,0.5087001992115492,0.5278210243882477,0.5439114134868941,0.5495452896460784,0.6145268501278247,0.7032528531360618,0.6851288024300688,0.5898738552985052,0.5716161004336557,0.6653954915097948,0.7105544182087877,0.6457411082815239,0.5643370164587838,0.5142277494682572,0.47159639313515056,0.4697441503289226,0.47001764732561124,0.46051994329981794,0.4713995539153033,0.5286081610164408,0.6217572228881991,0.7233968205286492,0.8319859033961987,0.9088164576912039,0.8653727182681257,0.7589785744233923,0.6489477314391374,0.5340421456423807,0.4421198268013078,0.499404757873521,0.5583465974201003,0.5403933880252523,0.5514932215848596,0.5461831488890367,0.5588819396488232,0.5606968446712157,0.5506587938272705,0.5743402457077127,0.608892757818341,0.6375009881976013,0.605256756977937,0.5965124802010804,0.5993174239996586,0.5848905675266973,0.5431153580172823,0.4694055043069816,0.3707057145008248,0.2796874044639934,0.30856990963362385,0.4185259635340097,0.5156204808753659,0.6142215276564738,0.718221290375133,0.7799182279681189,0.7325534113385177,0.6698667110449779,0.6419589110678192,0.5868440885467439,0.589329850973531,0.6341064284256777,0.6586100398452581,0.6591096925964299,0.6490949375189858,0.6066831697724018,0.5629070942123668,0.6282791273234385,0.7368687267192837,0.8287528529557586,0.8205383950441179,0.7251078289459971,0.646445806302594,0.6347272478560217,0.6346774684194356,0.6372076382704606,0.6458909141068068,0.6713446105670742,0.7004934876504154,0.7508535774328013,0.8523210546916853,0.9493826428485681,0.9818954629755701,0.8977518605457901,0.7851721184155469,0.6763886100456182,0.5888222797019158,0.6481735303412521,0.739382213134494,0.7522765805142386,0.6925585645338388,0.665413638210679,0.6282939051975629,0.6367885215152604,0.646855513555006,0.6250959786424342,0.6117944822924142,0.6149708152238929,0.6198473432437517,0.6252353283042367,0.5855934423991602,0.5513221996295212,0.512879015268688,0.5385917108446976,0.5692898086559524,0.5470821503041732,0.560552422452588,0.5547507912413776,0.5753189791895377,0.600132915849668,0.5838803364526584,0.5717329188242921,0.6025817112429257,0.6323397428711384,0.6392675215679557,0.570813466411372,0.4843426847001657,0.3733551376611244,0.26507342326718053,0.16914062292117027,0.18871947376443288,0.29214837246544434,0.4121635387138225,0.5326572677280503,0.6450018645189561,0.7241531721256087,0.6852724197490652,0.655344692150424,0.6193697530484803,0.5916074615820404,0.5903037388915178,0.5906148677859671,0.5862236927493845,0.5801599118843122,0.5927613505809295,0.6427967024521113,0.5823524755233316,0.47257729753634736,0.3760880344424171,0.36235849796608477,0.447988321598753,0.5369432565297672,0.5889580224328412,0.6084713466136922,0.6084245856248511,0.5744749252376176,0.5357072288621012,0.5393138761990377,0.5829327412391931,0.6086546544022289,0.6268641198851861,0.5483951940997338,0.433056105866779,0.3243857605311091,0.2091332614447241,0.10043396206780653,0.001236807848136845,0.0,0.0978773018073178,0.20586199343805456,0.31227069039347466,0.41410071626193723,0.4959133933039319,0.5279445741258884,0.5352848302515567,0.5343467649254463,0.5309079792141094,0.5543362073287761,0.5311783906759424,0.5056406226366632,0.4852532146257369,0.46997500960479854,0.48189651364718555,0.4633337450271324,0.48162693611987883,0.48063117832952384,0.46933234530709544,0.46544476893645204,0.3694078086852435,0.25996063843142414,0.15151819766209984,0.04781557564611294,0.05704847392439749,0.1614297555845301,0.2772963545002449,0.38693559247636555,0.4970735656872973,0.5884592818421375,0.5955981131637551,0.5156542016406052,0.44597315763531054,0.39725233476043265,0.40465988581646206,0.40988579805210135,0.4210734657891062,0.41373887285786237,0.446594751091673,0.49356221377636533,0.5220270572314636,0.4484815540106215,0.3458431650989713,0.30776756251885473,0.38561148893104136,0.4899880653463131,0.5410559497164398,0.4928422760652409,0.4927863050082615,0.4777338930815782,0.44914731183990586,0.438744315587825,0.4639187417307893,0.48790451832522486,0.5260096779787262,0.5333097745099753,0.5403493505809651,0.5111064961831193,0.5019909200698245,0.5154587716962986,0.5441539772788473,0.5665062139741299,0.5809220880618198,0.6002137547819038,0.5328228739595575,0.4252397461583537,0.3097618152028967,0.21212106168402833,0.20989044989933658,0.3107145830529219,0.42039817453357653,0.5403874252911449,0.6601737426200289,0.7260900535664705,0.6635083196469731,HB
0.8802118680861619,0.8538058417396595,0.9036291108520405,0.9611270005296411,0.9842025261017109,0.9465015914345953,0.8594343177708959,0.7624199447206523,0.6582008744286179,0.5545618805963282,0.4496881041889278,0.3758297932364122,0.4307100700117763,0.5357806150991797,0.6415951651396585,0.744976925862858,0.8471823909371246,0.9473174972382972,1.0,0.9547352333392689,0.8911850260918177,0.865306821684978,0.8969754787729285,0.8956484735710006,0.8895276033051605,0.8584688962103391,0.8140783933910634,0.8416457758953122,0.9071283479477652,0.9519827715388136,0.9534654832986544,0.8836066011017645,0.7852057839176472,0.6847857791622227,0.5824365868438457,0.47717733220013137,0.39513601059288084,0.43619325785741636,0.5408480279791144,0.6439343010645038,0.7498870706384853,0.8523801920231102,0.9480646826391845,0.9784343769075103,0.9258904431332986,0.8610750467625952,0.854568205835788,0.895215368719708,0.8999241394157982,0.8971865809028097,0.8640796114219238,0.8271502975242686,0.8661262818531628,0.9277668403747754,0.965754001579175,0.9529068023494667,0.8743227080518272,0.7786846816799484,0.676571163591517,0.5677757280287725,0.45943005054305197,0.37791339372021204,0.4212639338206443,0.5232944163287738,0.6309019656420389,0.733812359311184,0.8376690228604247,0.9373185815959515,0.9982470901128486,0.9568523468474441,0.8953958923317586,0.8503198257323181,0.8730804089343458,0.8794856888371618,0.864681035177862,0.8440180290667398,0.7901931167296459,0.7858418647162033,0.8502217555992642,0.9071187260940263,0.9449185964898252,0.9164564971943197,0.8327780265906375,0.7343163254866547,0.6334827243009544,0.5304785423707501,0.4267876718424197,0.32207603634221504,0.2731272812818427,0.35800154554599795,0.4613582667702316,0.5673719406976669,0.6703890778129808,0.7751779523662701,0.8788528374522022,0.9728252116554086,0.9762330637395022,0.9136603187703298,0.8561608215593699,0.8612640414621708,0.898637199105949,0.9038771724248493,0.8994638208774313,0.8599859401647769,0.8441356625747807,0.901024282976693,0.9591136264185292,0.9911982917235376,0.9663056060972086,0.8853096213867884,0.7956496267915809,0.7109014928353647,0.6126665195161702,0.5113179893753108,0.40232280135221943,0.30344199572208763,0.22179328209487614,0.1186019797109602,0.03886120992004927,0.08216578954709475,0.18317100008633191,0.2879604983466072,0.39103156827172936,0.4977882410210466,0.5956118025986366,0.6901254540195134,0.7898015295336547,0.8860470256963915,0.9524630997921961,0.9401483274050406,0.8843907985491355,0.8208805432118869,0.8068540019054984,0.8512547911835819,0.8758333690677484,0.8709493144949703,0.8420048946356291,0.8001089321965289,0.828993406195859,0.8870845132237735,0.8777204064161994,0.7834789007534833,0.6810031182809229,0.5782044416993155,0.47127899760691006,0.36194038636928005,0.2527213659715104,0.1477292159060235,0.045332583886089295,0.0,0.07633776203206855,0.1786302421904551,0.284758845965138,0.38861888674380163,0.49484115636334214,0.599063520876782,0.7004351223281589,0.7996153770183749,0.8886875534343004,0.8975447719652896,0.8478798371048741,0.7825649930852348,0.7396307587846989,0.7731813635159908,0.8239373888444981,0.8405130341957809,0.8499324679186517,0.8181032794365382,0.8298086916055669,0.8878662172123215,0.908249762726347,0.8272147558247345,0.7237836796157588,0.6181702719354556,0.5139316866044874,0.40817525791162956,0.3043953245047819,0.2011068960171445,0.09568468139310216,0.019069851463126453,0.06907323360583084,0.173194216698062,0.27732033555868163,0.3809061383788849,0.47628261090327584,0.5723819341370739,0.6770967453687959,0.7785799990219529,0.8734551593636464,0.9344359688600545,0.9134894339035176,0.8513182079719015,0.7947963557317408,0.7991424748446441,0.8484986682615026,0.8689292466034462,0.8668607929846357,0.8296814887877564,0.8139163118107045,0.8688905653693981,0.9195863293913698,0.8735781354591261,0.7682362619098846,0.6652443351313853,0.5601513039321164,0.4562482812541018,0.3519556729470643,0.2465914713860171,0.14256424889611996,0.041430662224899995,0.014572282018707527,0.1001385575442012,0.20310830729811524,0.30842353422883706,0.4119694019933706,0.5187949322686689,0.6279615887526833,0.7323295005321357,0.8303715349584697,0.9116112775891039,0.9205206367291794,0.8791540653087551,0.8126976366912686,0.7765887666495468,0.809836500660867,0.8542877781076552,0.8647388157066105,0.871467897295245,0.838644057814367,0.8276225596173044,0.8827358728819914,0.9235083520770608,0.8674834216059428,0.7671063391801043,0.6610864994067369,0.5517823239002662,0.44279020956045034,0.33895517847193546,0.2341205842113152,0.13119142154160546,0.037689758740509505,0.048900736840817194,0.14742994857249603,0.2506807468466302,0.35677248816581264,0.459771338284483,0.565031340408664,0.6687724181326027,0.7769024171623378,0.8748633693887311,0.9435383952237371,0.9378374482030907,0.8843619539442684,0.8266494245463261,0.8255313707427878,HB
0.6912246151825021,0.7013424249771611,0.7540530054497692,0.7921527677564006,0.8115100827016517,0.8159264556669814,0.8317666834871369,0.8447280054427722,0.8817568265243707,0.8585166241104136,0.8105649115547415,0.7949221002799225,0.8135978389486953,0.8085846187634018,0.7672785706289711,0.6898623269484137,0.5947232231887234,0.49247695553518267,0.4663894913430764,0.564042010769364,0.6800616153486716,0.7937275095017611,0.9048024974597568,0.9853645935440605,0.9447346977987732,0.8982008597990687,0.8675581032767774,0.796747041591302,0.7353410880507874,0.7804917430287925,0.8208666872227697,0.8377679631023389,0.853591918852268,0.8497070711845882,0.8666643605771818,0.900091071070704,0.9139290397415076,0.8643905126992377,0.8321825158715195,0.8262252594795056,0.8200923139961096,0.8105349852718937,0.7521683794986378,0.6708460861493271,0.5726765539325551,0.472179259010161,0.48047889167736746,0.5921467814629484,0.702258064148338,0.8182762368358423,0.9237018137893089,0.9596547025850855,0.8955776264524589,0.8632147210972809,0.81250577092488,0.737550162515243,0.7315579610575444,0.7745998084564321,0.7949215826820397,0.8026599499697642,0.7960921866205035,0.7939326683827057,0.7991892467420214,0.8406101495293081,0.8449663998355914,0.817290708831204,0.8050783112630728,0.8196695257711786,0.8258240213812342,0.7777111220205917,0.6809395014356807,0.5800837357552144,0.47372775308920123,0.4162432244213865,0.5079809730433349,0.62570120214718,0.7358872595489048,0.852620049850161,0.9576494085439362,0.9999999999999998,0.92795186118441,0.8820582831863499,0.8533396503802246,0.7808116393262565,0.7363102970073612,0.7932237855414386,0.8358083315913556,0.8405564874796931,0.8578886144323536,0.8464647086461301,0.8457915827081031,0.8776084772708959,0.87453834714683,0.850688582129542,0.8364249241299275,0.8529181366652347,0.8331123436595258,0.7657780111692503,0.6666732268669973,0.5600706273764875,0.5108490811355484,0.5993116387286312,0.7176438093050874,0.8283746461022232,0.939998856906221,0.9953712725503581,0.9453955658124429,0.9307805283767274,0.9051723521599986,0.8405885882366271,0.7697648979917291,0.7946371774547691,0.8460854462119392,0.8830048327707327,0.9039806303771172,0.9142602907759401,0.8997920612865526,0.8536023043366654,0.8355304942018942,0.8071049533007935,0.7649635618831578,0.7111388078303837,0.6844127004516245,0.7451226235094486,0.8216130010846243,0.8430970878992341,0.8773651814052068,0.8134795577384868,0.7043443028865155,0.5866392126140323,0.46887459947903753,0.35865857792148814,0.23989624283196553,0.12493392129218717,0.020872192834328063,0.008539842703894518,0.11416287983370643,0.2342143671902981,0.35186910949785566,0.46180395453851486,0.5716489535760816,0.6689231230037185,0.7509936249951734,0.7850193099386666,0.7755620537040875,0.7759314911259121,0.7898830412300926,0.8013703222637238,0.7770607183924925,0.7724866980213514,0.7819664025258464,0.7709394233064117,0.7523696569328011,0.700826423668502,0.6645012518572664,0.7122720963826705,0.7858994192291113,0.8040900264300521,0.8256890734823383,0.772208012887728,0.655058054488648,0.5440801477525479,0.42775548607352953,0.3130224378409385,0.20076704496736641,0.0861671592569464,0.0,0.038460536227103104,0.1511137232605415,0.26120559154665135,0.3785642246154395,0.4890322971753802,0.6041009658404566,0.7060739192398213,0.7530031884023753,0.7375587534579469,0.7367359073926061,0.7483318876757623,0.7549136448746874,0.7703552022032503,0.7259048109433699,0.7157910476636304,0.7284366556796666,0.694420143934739,0.7122188207528717,0.7159596533451695,0.6987887568363116,0.6530566496865904,0.6272390117287301,0.6914934796812708,0.7649028084919614,0.78685982810539,0.805889379618763,0.7520031343964722,0.6377435232616151,0.5264341115758167,0.40762151720933404,0.2967854894602586,0.1807899116258267,0.07270996639482341,0.02572412595439877,0.1088813620434903,0.22246906596730298,0.3344192102616135,0.4454313133828556,0.5546192312523057,0.6571181783211315,0.7273266736111312,0.7446292425485124,0.7363862600473181,0.7526464807375277,0.7889075078142309,0.8154427929270744,0.8061098499093149,0.7876522739897742,0.7787853445257944,0.7697449127245053,0.7656502117447077,0.7698242431588171,0.7320773354557766,0.6719435233013844,0.6710583829456482,0.7390517046172509,0.8053340885516611,0.8361151216389489,0.7834572906686292,0.675352689725554,0.5562808686315981,0.44221071120288036,0.32926835760640283,0.2126184470068786,0.10217833235427443,0.004644024573740468,0.029468825054017822,0.12984277187460402,0.2277875190715759,0.33636867358057954,0.4495989101109332,0.5574244197665428,0.6604007384984059,0.7326248516203091,0.7398888142209248,0.7173061097008306,0.720638976544137,0.7456809073182071,0.7916964323949365,0.7880791044860314,0.7538890765340749,0.7449645828735842,0.7159852325784948,0.7307485266692206,0.7184239843541291,0.6801860267878947,0.6447324554339977,0.6117742374160045,HB
0.4753889006510501,0.5069118314669232,0.5206305080821485,0.5271839516887333,0.5202744754545241,0.5075955341859275,0.47840724998112405,0.43690683152268095,0.4156863097228256,0.45135352144126006,0.49470761228728977,0.5263093410616968,0.5451647400238455,0.5763286949523108,0.6329775367440149,0.6976952317566443,0.7647864962481525,0.8318336511829152,0.8956148316006434,0.943494090584786,0.9154557678630413,0.8484600409088601,0.7766905930430594,0.7084859109774351,0.6367752345184794,0.5648844355988369,0.49670268431113485,0.42527213085770177,0.35689453664539295,0.2905850404364908,0.28944147079647875,0.35241270098319233,0.4231004431853497,0.4872952227973504,0.5152764977368398,0.506929571718548,0.4741427498017292,0.46512036513706656,0.5018279148711902,0.5324496644801597,0.5406478933368066,0.5155521016467439,0.49251561074022643,0.4709615274990475,0.4316877407365679,0.386830246541468,0.37057710547335376,0.410565779909546,0.45587130378647256,0.484862688606988,0.503150846666151,0.5409351621182192,0.5979537061824542,0.6629311320798343,0.7306758092786558,0.7983364364640397,0.861345188329963,0.9216891486033594,0.9273426791808506,0.8668032455380628,0.7985670640164464,0.7277825835393921,0.6580195383798619,0.5884185057736591,0.5158757023160256,0.4463447771879464,0.37648978940763045,0.3043445528689288,0.2557436232796444,0.29504247671939454,0.35942158366100585,0.41868705277973517,0.4786075524443205,0.5076973752240623,0.49576835771598815,0.46805217802963406,0.4836505658089514,0.5207470380964216,0.5428379671538983,0.5408898795314274,0.5249857921644423,0.49966591717665776,0.4623856807260962,0.42699222023864924,0.44095515330136226,0.4833305659038736,0.5177454183266512,0.5395460995632293,0.5649059100807043,0.6165734720368528,0.6794090809167819,0.7469683166925851,0.8190941496333388,0.8866663703046369,0.9502312995241886,1.0,0.9757965597310219,0.9098216022255665,0.8381498475845388,0.7698630664181207,0.698388094196803,0.6258636674044895,0.5569545026347738,0.4864074253132713,0.4136859277818814,0.34093077905306757,0.2683257379498303,0.21335167804194932,0.24819537974335093,0.31537277071811154,0.383229962334355,0.44914343505633114,0.4945080043118162,0.49945965188568664,0.4707321628871466,0.4441207375607956,0.4682618913344416,0.5013600114356007,0.5140947633497386,0.5149588491175192,0.5063887304113714,0.48722342844973343,0.46007503836345176,0.46401366639162567,0.4776716876873699,0.4862777725780627,0.4731134379373694,0.44163013604983603,0.41200658136839385,0.43085943517548553,0.4647080064868969,0.4593071676003577,0.40185890204577523,0.33432976151591587,0.2649799513881246,0.19685068777879866,0.1292138564160844,0.0619701789447652,0.0,0.00518851372839213,0.07106988181132645,0.14085357155779799,0.2103797131144468,0.2827808901304021,0.35160721636974046,0.4222406223844716,0.4934647026083059,0.5618653866399461,0.6341324283789402,0.7024247689764862,0.7623918226338233,0.8333692492673068,0.8887697120887448,0.8577463183511738,0.7900602103310406,0.7225228152561733,0.656955848557335,0.5919546807851455,0.5411582591867441,0.5138173961777446,0.4936894108998482,0.46026468510548946,0.4184433183056121,0.39124486576028805,0.4167445086165613,0.45786269390128,0.48822125132262206,0.5062737444421883,0.5155768954864333,0.49834167132746865,0.46217721242223875,0.43247154335743565,0.4498153028412776,0.4759301689352313,0.46944010728680263,0.41828480064035156,0.34970435102429953,0.2771667390945587,0.20745646674427687,0.1406506268656813,0.07360312926140056,0.017897782710163068,0.03671628438380026,0.10198848494600643,0.17367631817091622,0.24260309236594935,0.3130931676395028,0.3834605686437895,0.44639527815238955,0.5108089240143097,0.5726545591051602,0.6394110032284068,0.7117598229527429,0.783956037121257,0.8256934020054116,0.7796529942396573,0.712230464843695,0.6448172176082636,0.5811147025180001,0.5241644443631313,0.4842570148715575,0.46153400085295604,0.4444493402088441,0.4024589744520676,0.3565755431635611,0.3314798584916837,0.36015153403481714,0.4057909253476786,0.44563960640594047,0.4664997292989099,0.49056237711628414,0.5129067785683306,0.49609250448139974,0.4602485618416048,0.4261383192855226,0.4422699553134549,0.47694062318450325,0.4860874712153107,0.4414472937869057,0.3751837246768568,0.3079720775272037,0.24028183523698177,0.17081230627976418,0.09967296520647795,0.057314961240098494,0.09734877003479026,0.16609636321803145,0.2356191945229611,0.30753908334708135,0.3757388732858833,0.44730716399325776,0.516472335631132,0.5867010125445569,0.6578845422010042,0.726298408820236,0.7981825816411423,0.8454468861108622,0.8021321243000208,0.734060909022173,0.6674120250314703,0.6043426012646216,0.5506502994952616,0.5191608179442966,0.5007484938017548,0.4717086230029599,0.4269644338438241,0.3884988078551608,0.39896385132682777,0.44159753808515756,0.4750966094364024,0.4902157148257982,0.4984261816130693,0.4915935645884919,0.46732845510073684,0.4292313361413991,HB
0.9124574500209126,0.9088879111085666,0.8421508076747144,0.752971589052946,0.6637064380304682,0.5713286709038636,0.4831627855945251,0.3918441924383569,0.30017379423266166,0.2834732738386565,0.3692587914850245,0.4628656783926499,0.5560155372435467,0.6493084872114627,0.7399736432029793,0.8302021092619567,0.9267192895348004,0.9935323562256551,0.996494004914994,0.9713871236575002,0.9288911794633292,0.9185410277069854,0.9269371948177656,0.9252600336978822,0.9336074944216006,0.9167748008845622,0.9097064456455055,0.896968049692759,0.872731893949575,0.8713352560975423,0.8829778162365163,0.90785382724588,0.887545431103719,0.8244250824433357,0.7462155876942702,0.664474056441188,0.5754763004383356,0.48854440916565145,0.3913272431847197,0.328313439680187,0.38512493970982,0.48120293686765314,0.5734921006989375,0.6654954702180802,0.757496823531062,0.8490897640466881,0.9394247668801756,1.0,0.997304088469293,0.972086029490369,0.9303618914125411,0.9240193271453938,0.934128641203781,0.9243974501835661,0.9254042248436902,0.9082001757312559,0.8819622775181248,0.8761696725411436,0.8949775870544185,0.9179676103515666,0.9183865140662673,0.8577228737986828,0.7708289037785534,0.6807235693108484,0.5954781539471043,0.5105656154205478,0.4198508681172717,0.3416470796080058,0.3320622082476148,0.41624480866320224,0.5157203891267148,0.6099442745304255,0.7038477737025437,0.7963089504094794,0.8870904771686101,0.9690377193650319,0.9937900190280253,0.9920394726132626,0.9461688334503955,0.9085888840555831,0.9064355366415813,0.9321274349772362,0.9329814992199144,0.9212923034528602,0.9265111445357805,0.9022231949935076,0.8866623947956129,0.8956086850560208,0.9097492171992803,0.9258855006872988,0.8837713982624418,0.8179248895651723,0.7383893556899976,0.646049318949496,0.5561249389904315,0.4671483715648308,0.375903089405915,0.3417707060469124,0.41478888329354047,0.4962191547036874,0.586736722549783,0.6784297581474008,0.7709124725883079,0.8662443111450997,0.9546362433912514,0.9948469418685983,0.9968295199360915,0.9585693413146072,0.9205479389318905,0.9206187107571633,0.9385028699238189,0.9383666524089651,0.9196066453497491,0.9236314096155522,0.8855917902449115,0.8680734700901906,0.8812311413663001,0.8853984946581017,0.856124897855383,0.8272948434271619,0.8193044273474022,0.844533653861514,0.8746361965458815,0.8717275596835832,0.8861054234557635,0.8913524688875558,0.8779493777979523,0.8725233557109651,0.875126352845939,0.9180360609235354,0.9486638432201662,0.9240787180699683,0.843976936529762,0.7517163281751724,0.6599762155900997,0.5651009157916862,0.46688524729139913,0.3734660255530786,0.2801118371179361,0.18479992696220526,0.09250463449817414,0.036608267933972205,0.08964228224936599,0.17103324739077796,0.26207106901463584,0.3556652416454309,0.45385690716954197,0.5454967967443067,0.6307127101101362,0.7183833775902018,0.7957842202277379,0.8584005114359439,0.8581677367191975,0.839102514071864,0.8280570063440553,0.8385723701418737,0.8694648203797664,0.8799355050363222,0.8788209017958044,0.8895767505957977,0.8619361756309691,0.8507439536128787,0.8776343381675371,0.9258034727549647,0.9448743493486027,0.9057142430384215,0.8196708773078285,0.7277653319807633,0.637008428974924,0.5556995259368231,0.4648990689781629,0.3727504011857743,0.2800927889943492,0.1859804529273511,0.09008628177260825,0.03619444132172378,0.10105984576474658,0.19490792866740225,0.28889839528032457,0.3819993904140866,0.47473883383022786,0.5620812555450163,0.6365024892231259,0.7208410479977965,0.8156523238859106,0.8717713135808356,0.862987879426506,0.8463855227290926,0.8298839435020804,0.8445045829221041,0.8708573543895897,0.874298464492036,0.8886585532384521,0.8825567776483527,0.8728875092874022,0.8809058632003863,0.9285004285337612,0.9503187833763371,0.9087536391670779,0.8154985067112133,0.7234830764429097,0.6309038381406622,0.5381152180697779,0.44503666257700636,0.34966854438532136,0.25567416456305125,0.16079949707652375,0.06551609909065848,0.0,0.05017331898631572,0.14437016523851331,0.23890600327257372,0.331622148747142,0.4106450682583245,0.4836337303637064,0.5673476294422186,0.656002728003696,0.7471978880081966,0.829151546277638,0.8592110805997668,0.8420344533065158,0.833896660746555,0.8154612372477696,0.8384374970604047,0.8698859459171782,0.8616576300808392,0.8775305086911125,0.8856029153369556,0.8666926467607274,0.8534005610937443,0.8810658802476599,0.9260737557515446,0.9368933097969112,0.9382292368531799,0.8681012492268481,0.777150378482784,0.6875361387325973,0.5903264260744225,0.49425711932421845,0.3993486688848631,0.3056928517089359,0.20858105731441023,0.11521809045480369,0.03169737412329732,0.03505173994654609,0.1207185315816407,0.2139357240020261,0.3097764835330099,0.40997126990328536,0.5022137685913315,0.5867329051274224,0.6746558256256943,0.7638033675415585,0.8468029000666255,0.8687562622998048,HB
0.910638133561255,0.8614369561898094,0.7741141380925507,0.6745443201086805,0.5601597691600881,0.45005187298488325,0.4508751638816735,0.5699961104172968,0.6919390097048193,0.8089625399983875,0.9255100129962996,1.0,0.9607050266679589,0.9043188455394748,0.8638513829613412,0.7920589624410272,0.7582072653277918,0.8082280500605696,0.8528687056403044,0.8716388806863216,0.8468110323573188,0.7981002259481706,0.7703799707751942,0.7944899510196053,0.84865527026435,0.877580518060094,0.8843731306849452,0.8724302273210083,0.801564691832453,0.7090484506570167,0.5975464763086551,0.4823588974622832,0.39676766305713196,0.463713413407119,0.5879394938426081,0.7036057098030164,0.8177632715715437,0.9195273461037292,0.9473689118620992,0.8734715876396968,0.8234080250489093,0.7688139414138648,0.7000088877171735,0.7027796694931903,0.7558207651000717,0.7966049465063119,0.7966078128089817,0.7568875703895128,0.7149492310743377,0.703342667458486,0.7149423480179538,0.7559616153904893,0.7737945115074112,0.7885940294154619,0.7569205040063811,0.6802438665703385,0.5785176364620419,0.4659878500586321,0.4119427648264278,0.501802945178393,0.6229240449849556,0.73793462872607,0.8489247495216223,0.9133467121771042,0.8613183721046558,0.8407093630699567,0.8092338535113925,0.7394389506258414,0.7227320516243054,0.7706280164151078,0.816241588266033,0.8611564062870509,0.8747853658580258,0.8472504983753,0.8005694748042842,0.771631469461667,0.7881698689301158,0.8363232419832358,0.8755633898050132,0.8934663813007848,0.8592730741569703,0.7893486484624126,0.6983430471651517,0.5899794867586605,0.4652412082477597,0.3754853905560387,0.4477134542583152,0.5705681832958756,0.6866749194937469,0.8072816263397558,0.9133532708648513,0.9560531261524794,0.890506201997372,0.8541187563052293,0.8090086166592165,0.7963114070655637,0.861220908187347,0.893842761574331,0.9002400768944336,0.8880736539532141,0.8481820110278133,0.8122822311059474,0.8312268252027879,0.8690122603281782,0.9051967863556998,0.9021733083763848,0.8729497953405847,0.8194237185406972,0.726261507145701,0.6498671804027754,0.5585476288373705,0.4608881001610894,0.49328163638604616,0.6106415510112173,0.7299895139438974,0.8464987933239567,0.9493278442071569,0.9551244297276456,0.8791320513614651,0.8467097665930643,0.8280722404656071,0.7169846564484983,0.6298570010322941,0.5176256222878752,0.4127365488880068,0.3436597459829205,0.2268187999035649,0.12083164739185692,0.10549655018975068,0.20524398188278203,0.31817352414907485,0.40800924605976885,0.5133376821674784,0.625023216298842,0.7246223110259478,0.7911966529851351,0.8234561545363976,0.8274379497521638,0.7937796179778132,0.7529349926747462,0.7383314921934967,0.7792144461617485,0.81142532976195,0.8318154818891701,0.8254914875650528,0.7894041895636801,0.7230153155136065,0.7175941119001341,0.7718018685684509,0.8031573130066403,0.8420250290369089,0.794464187628884,0.6787680238732481,0.5601313368390635,0.44013874620765314,0.31793720919724455,0.20120548899479007,0.09495847045087746,0.10960808677609135,0.21687878069076594,0.3302084008964741,0.4482134768653707,0.564268487582174,0.6729834393564613,0.7619547403116438,0.8116317364299479,0.8057485825592634,0.7689861684376376,0.7243516777102785,0.7083690255495947,0.729287202661983,0.7753486397485676,0.8036160554417093,0.7742174043117567,0.7312669697537673,0.6766034972518802,0.6302394028488041,0.6577601840096623,0.7290716732958118,0.7708633760044861,0.7635264201452112,0.6809721945154776,0.5650638264658068,0.44287469782648436,0.32434188637719874,0.2042358493193175,0.08692692560040172,0.0,0.04571761056638746,0.1572018654951226,0.2766605049572395,0.39095493649489677,0.5025427402865326,0.6128769323928456,0.6957021940235268,0.7126584107332312,0.6989139022394419,0.6724382795889814,0.6335625254553046,0.6279218127667758,0.6514755374011423,0.7014544978919544,0.7312695641520337,0.7201375649172039,0.6667634575993415,0.6103970111002712,0.608678464753484,0.6773648201401112,0.7466393421354547,0.7894149636702452,0.8034824059500769,0.7145575961182877,0.5937500913068594,0.4768180417821677,0.3515467343037757,0.23454254001092045,0.11786162895501362,0.05556613439477309,0.12207872499736916,0.21811714478753297,0.33109898439117336,0.4460621652737329,0.5614205060570283,0.6719227659891049,0.7594350615009828,0.8052402666719369,0.8103070214034465,0.7850273594378896,0.7361160669594287,0.7055549251461333,0.7249628313966845,0.7689615886874357,0.7995216048070253,0.7899269331528704,0.7569433882085952,0.7048645639377429,0.6970401646136133,0.7594279379764428,0.8247335659087152,0.8568023781214804,0.8732849916235517,0.7791776967367889,0.6559489692054394,0.5399287702869473,0.41522460672795436,0.29787161789384475,0.18393400035798768,0.12763290289028406,0.20668244383180245,0.3215042680869058,0.4383896385200683,0.5536890037769817,0.6668885622281664,0.7656854473720558,0.8318065210642396,HB
0.8856241667027418,0.7603533205201853,0.6294529701339289,0.5639378363264966,0.6564202464902165,0.7528587726693248,0.7992017571098877,0.7916979918726539,0.7718121270586824,0.7022795441305401,0.631390828307699,0.6055517062210702,0.6661174326476056,0.7145946958369072,0.6888929941717756,0.6480806872437328,0.6837035797629305,0.7391839216569629,0.768315610429072,0.7824395999390559,0.7866558947383075,0.8193327477859667,0.9113222506442429,0.936064143211949,0.8452976889936328,0.7264887366721071,0.5856459726930132,0.5361260295017636,0.6440701065051773,0.7392179020167524,0.7909822580324022,0.7713261377257865,0.7650693486111626,0.7182673385592104,0.6428335656559758,0.602594640209162,0.6486319504064957,0.7122836004178925,0.6943349030973218,0.6557395194453841,0.6250621485590315,0.6598629716065076,0.7145639803119388,0.7559162426884458,0.7373242433765133,0.762727854391855,0.7865056119642997,0.8277224272516808,0.830007340569423,0.7407229721866369,0.6070375905688867,0.4751330592995293,0.4202669324574315,0.5342792239722316,0.6686067835734573,0.764517051930286,0.7989955650470972,0.8069513907784112,0.8083065686285944,0.7454926236015487,0.6690841075237439,0.6369431330432249,0.6880390430255212,0.7246641541549552,0.701839682489267,0.6711662753499601,0.7147798058711392,0.7527971421174122,0.7812734524869831,0.7901959186454697,0.7962585268206701,0.8474680959641852,0.9449699214477256,0.978639262060589,0.8720390533795581,0.7304714691979006,0.5953129157406218,0.4670484125315082,0.501948324123735,0.6360654147175113,0.7556551375446459,0.8132763727331094,0.824594277384862,0.817372011890559,0.7755182914542997,0.7053031006469812,0.6417093297703031,0.6729930652432667,0.7255687868948462,0.7271470140875591,0.6746437511301977,0.6438333603172155,0.6821503070370336,0.7245460400817194,0.7517410975452958,0.7809065815946385,0.7826159993939128,0.7924953733580313,0.8607391089844074,0.9778550974474842,1.0,0.8868497397199708,0.7543525654530594,0.6296880919604182,0.5325187775844138,0.6075658275598723,0.7043828359726323,0.7827929649966787,0.7919764554205573,0.7601651958579501,0.7173192402787079,0.6341531155550575,0.5970294984668341,0.6470259282290827,0.6887962554148324,0.6935914474870497,0.651892157750491,0.6782818152144157,0.7275640840797455,0.757467323102595,0.7234316674265528,0.6166282605239757,0.5171872142698795,0.49107870265441544,0.4149739180702108,0.2770899978409975,0.14788208937275638,0.12572229971180704,0.22624694149733804,0.3641529938840016,0.4289955173351392,0.4622078696461851,0.45439594269653627,0.39562612444657264,0.3844990613303869,0.4379416681608377,0.5102485764760618,0.5433297174998502,0.5571458219129415,0.5468206645261118,0.48773090977192446,0.3560511695896298,0.2192596437568417,0.09497235965787043,0.1000743997763407,0.22503906277618624,0.36110974467349877,0.5021323183024156,0.6354598060932655,0.6554049736699286,0.5719891818933123,0.5413640222195402,0.5539770045896288,0.5310133527021961,0.511014876260889,0.47363543525156926,0.4309290970959445,0.4339772504636321,0.4871839333230179,0.5078442085397765,0.4545750152763599,0.4326646642207148,0.4931489143438679,0.5624025063535631,0.6067507967563466,0.603417808417849,0.5735173522998296,0.4733643540589094,0.3469220472926451,0.22968005686748283,0.22729221018903134,0.3363730369283271,0.4757741985157429,0.6100387349263019,0.6660119841012104,0.5932491795498263,0.5509139374828225,0.540782583785087,0.539887913829725,0.5341165074378007,0.49635609871466935,0.46490843764734135,0.4676889006621896,0.5033516517621437,0.476180849038081,0.4155487151263495,0.43735247578987124,0.5157101936399102,0.5777142521501357,0.5691109771012095,0.5758872542974354,0.5246566185393164,0.389220973962626,0.2560200884384942,0.12275812564880839,0.0,0.008188358533244067,0.130331613415251,0.27141710021749477,0.4166601049584484,0.5501825713790471,0.6508159736689043,0.5911366292050473,0.529774694566568,0.5078522391694666,0.4858851832001192,0.49062807451628254,0.4547064297909391,0.4039063556057396,0.41822223434658046,0.4374773858489678,0.47413162227004335,0.4396304795013535,0.4096720334777646,0.45032943648136614,0.513500932749575,0.5568082907420107,0.5736010327499219,0.553856094547418,0.4560705043051585,0.3311348167995871,0.18584857313788428,0.07629214059833966,0.13379499980941745,0.2724537691797302,0.40793228183649966,0.5553386742173552,0.6950158734201013,0.7381031201525969,0.6444084061110922,0.5565295693203471,0.5411761070088343,0.5359301312484246,0.544849548492468,0.505730678697164,0.44954653379972864,0.4105636183517185,0.4369314832351687,0.48010185350499013,0.4452974444384421,0.40856377539515787,0.40255813937637974,0.4738698518348743,0.5471460898042935,0.5759583091903355,0.5899641799560729,0.5700673052347813,0.48425344764282174,0.35325290033538925,0.2093189182947599,0.07404678880707172,0.02702917555157036,0.13815486311361536,0.2721014444026033,0.4051237648696637,HB
0.5986471099651965,0.6321681154778905,0.6840237193599389,0.7323733963472451,0.8100466260456299,0.9064128571666087,0.9530421218361212,0.8742356539119339,0.7643782238823188,0.6492486286495264,0.5360525315537431,0.41985846681257655,0.3528996986300431,0.43353192608252356,0.5449111963624694,0.6539159001845117,0.7266462078269186,0.6939513327245802,0.6343663498234425,0.6020475659692529,0.650181439154368,0.6765970839215029,0.659788092208592,0.6191869786377314,0.6096708664926348,0.6418224049123552,0.6859045524365585,0.7374951112758922,0.8023900292281451,0.9066123761863979,0.9711561904945368,0.9082218098903644,0.7982864912229056,0.6850551102433003,0.5713992532375706,0.4594089288349038,0.4350962786269418,0.535854133504598,0.646981446793193,0.7536912285508398,0.7852009121193112,0.7496137874975491,0.6917300040660196,0.634210747363185,0.6610958493652058,0.7080896310609509,0.6960864178704304,0.6757751248772871,0.6217777019464646,0.6139914491033346,0.6603149375254708,0.6939781532476329,0.7238344742252117,0.7792634608379533,0.8700897478692199,0.9610405162162857,0.9577229479081796,0.8611561792467116,0.7496114561147332,0.6355225912856702,0.522155306930684,0.40523392183248286,0.3567747869734391,0.44622760871749156,0.5590325382814744,0.6695408407005717,0.7213070547341408,0.6840541868754549,0.6408230666701945,0.6504590571278529,0.6817489104609199,0.6850808870318371,0.6892962798568752,0.7038935150693181,0.7217192878213742,0.7077740691977404,0.6532090996221774,0.668671383529818,0.722147245262677,0.7690448602012737,0.8328177754141278,0.9258283106747253,0.9999999999999999,0.9493620056038391,0.839839176796587,0.7265554593178526,0.6115165667859482,0.5018995231109803,0.49074104148119224,0.5932228390934836,0.7003677455583447,0.7595138528873612,0.7158505207984268,0.6465782088504554,0.5879089224274546,0.5528724316867691,0.5732665956965958,0.6153402070873456,0.6668748183458942,0.7107145060078718,0.7978076659191314,0.888026693356338,0.8706172872671093,0.7690684960597266,0.6592768139544479,0.5561461925367003,0.44315420085918233,0.3292097082008155,0.23064382183939347,0.2688011744795856,0.38076872960967456,0.4933519407014785,0.6049961026377245,0.6726332411091186,0.6558761848375975,0.6045647920019929,0.5107214614348993,0.41436117559874186,0.43441925733913844,0.5316823348209742,0.5906946192707868,0.5907997236408232,0.5279046639965833,0.42783534523919575,0.34776343091499096,0.24103345073816895,0.12940208874594294,0.03124512720499728,0.042416727862960024,0.14768276294669336,0.2622230457174418,0.37651484881589614,0.49200426290581045,0.606688106458796,0.7196003024332395,0.7654700411223913,0.6908895389949702,0.6276825421196209,0.5869907623016605,0.5505849398518269,0.5082289714827376,0.5067833008568255,0.5377341470007108,0.5937141537431988,0.6474767476838154,0.7003655959644154,0.638756506164977,0.5293552086286056,0.4115784338667373,0.29292733330817,0.1802286311044542,0.07076082288638041,0.031526370350227206,0.11955235899578065,0.23532279721375537,0.35293815465155964,0.46585428045178057,0.5789709067921417,0.6828152335834642,0.7918937436286267,0.8236316684306358,0.7557455169203765,0.7065646497118298,0.6547208820264655,0.6131603026507179,0.5717019860404887,0.6174283496514376,0.6761809430956466,0.6617267793321021,0.6480687628885883,0.6304924067718504,0.6318901537353615,0.6248887828106341,0.5853035678559199,0.582660123365012,0.635806043007657,0.6606854631834446,0.5847950100652061,0.4736695752091259,0.3614671191936242,0.24375875415437231,0.12618301282018762,0.020248078445237683,0.0,0.09846344841724564,0.21382128823617308,0.32809429520812683,0.4470256583436746,0.5606646707916477,0.676808586959693,0.7870183567301826,0.8202793328848891,0.7354882213618862,0.6920166731321465,0.6506560783242293,0.6115825504935758,0.5666196703870717,0.550089356265315,0.5995921618910335,0.6389799117517779,0.6095688980636119,0.6453745186951115,0.60837906877751,0.5511453015130986,0.5942500984987918,0.6629096261065422,0.694229729875001,0.6222729043340213,0.5110924952740145,0.3971966948689404,0.28349829980358987,0.1683066912738339,0.06358651750261601,0.056679101018738076,0.1589849038941583,0.2732504654772473,0.3882859979607042,0.5057118786774059,0.6186988475559246,0.7341672415968931,0.8348167550983187,0.8199545825150013,0.7293707387398048,0.6761072095837496,0.6365660345990772,0.5977816949866258,0.5330866913733178,0.5451940923348285,0.5672843914854789,0.5994700903678855,0.6189177564934506,0.5851824936754303,0.5523553486947924,0.5985667834676421,0.6570583976993359,0.6618917077136649,0.5680562204881229,0.4535537826759978,0.3349327154312428,0.22219007149005565,0.11037198597292586,0.018047952802151657,0.044462865244862204,0.1553075597025234,0.26933626347399076,0.38534783477618906,0.5019842003756466,0.6154533486811627,0.7295846864832337,0.7997884746328884,0.7419840857771317,0.6729403294424826,0.627756536260989,0.5804569361855368,0.545613692624125,HB
0.24446552639340324,0.3189109749568386,0.36946853830905724,0.3930854008130833,0.445222444962067,0.5411403025050867,0.6500624250353857,0.7619195605948832,0.86874884395333,0.9469678685861562,0.8900271116580578,0.7744835958609175,0.6550195460140338,0.5295390544684451,0.4094572522349149,0.28626697146703073,0.2535402103461577,0.3309192130956433,0.3790666077212257,0.37585035408270784,0.3062608401809277,0.2467401388910504,0.2883696057574665,0.338202190714036,0.3156653188143399,0.2485358726967004,0.20615324267629842,0.26723469744060346,0.33764654453440857,0.39379626115016464,0.4018229213713118,0.453793084934778,0.5534409298027381,0.6636643381048737,0.7729259618729376,0.8802006132655413,0.8860257292407003,0.7834199432098261,0.6626319965638925,0.5414765293009514,0.4170321297798889,0.29432003455131994,0.2046358166015958,0.2556430824907301,0.3286840943336924,0.36534803842847285,0.3355502455232351,0.32490124891757666,0.36656955173938166,0.38831418455856603,0.3441557392506023,0.28392879623361567,0.31153402994567014,0.37815111166429594,0.4439070164866372,0.47390988395678235,0.4793439735783074,0.5574447550420953,0.6715460512527929,0.7855756563830023,0.8922091834118788,0.9528955188540968,0.8810452337097954,0.7608659571572014,0.6333240618872611,0.5131379389885078,0.3873758555054909,0.27466110677159716,0.2667680855457648,0.3512981642736497,0.40414580816799583,0.3979465596098466,0.33750723088249,0.30752085250571404,0.36211642884584716,0.3893036451759415,0.36716533620773095,0.3037711387486919,0.3026871718860906,0.37781646967299576,0.4402422371307231,0.47693082687947586,0.4998299302562996,0.5798188009548229,0.6850787446149553,0.7975029778802902,0.9088948728360222,1.0,0.9722028628892518,0.8589305937728824,0.7361246204797647,0.6154186569432105,0.49062421898735264,0.37411404709720664,0.34352199080189627,0.41919812326828376,0.4826302961582094,0.4681244494400043,0.39772740638531534,0.3452339483263118,0.36717395583107204,0.40986592493777474,0.3931428267209962,0.33088535556605114,0.2711453039371874,0.28428301870602657,0.36346236561056067,0.4302250300099639,0.4779577740189995,0.48090833698849744,0.5436742081057875,0.6341684633738134,0.7396467355053353,0.8474997189943485,0.9597048747169126,0.977514832178715,0.8766436540357376,0.7576581389907036,0.633868422640615,0.5126743360100456,0.3870497031559297,0.3192780214662785,0.3628022585361357,0.37781512934747585,0.3395299438570194,0.29457679782208546,0.2136549248331856,0.09781859868549403,0.04041869934178921,0.08954889952422551,0.2079049290673205,0.3181119472836431,0.4302567074202126,0.5499482636286985,0.6757898983856556,0.7944541952540414,0.8363341596333473,0.743770339777984,0.6301012787676101,0.5257789331717295,0.43557337641684235,0.4121251550466476,0.3999458393526716,0.33649031888490555,0.2572839023617488,0.19807180168778804,0.2201694345873939,0.29555671346771595,0.342895971350877,0.3131088029314546,0.27877677765616893,0.3163495847447473,0.38977114876275687,0.4149099056213146,0.34941137418583,0.24600084821291768,0.1324250858271574,0.08543533259434999,0.1729889914488758,0.296938230629028,0.41713542955468697,0.5389976621680503,0.6606564524243206,0.7878523454772366,0.8517464235050523,0.7665879781687526,0.6551433876911363,0.5509671849960411,0.4528984145662016,0.4125673407124646,0.39957158819420213,0.35163018928763035,0.27495917131465464,0.21824092093301406,0.25389773202629984,0.3157851247179091,0.3344102177867776,0.27454772663325455,0.2526926815669803,0.29427823036682854,0.34948103754210336,0.32135299643498083,0.2304864669370854,0.12506695567603043,0.039566562118844795,0.0885160799875715,0.2124087056529107,0.33243131483700794,0.455814072805349,0.5767435433502217,0.7002356286463916,0.801243335292344,0.7674700922324016,0.6597101892237038,0.5502827346882104,0.45229565269467775,0.4141401222478067,0.3994618073533198,0.34517485958062877,0.2663935762191445,0.20928929784856587,0.24015393120502937,0.3038521437047468,0.33492795733247727,0.297291376621897,0.26848121923319135,0.2770761163623656,0.30651367249573225,0.264581033764802,0.18241097947294405,0.07389194505724794,0.0,0.06735040220624966,0.18969212601059793,0.30987251197994614,0.4347403035740185,0.5547239266211226,0.6777595219984911,0.7670974861012101,0.7124685903177128,0.5974123538574925,0.4866816441286348,0.3932040442801834,0.34639810446222175,0.3286627894107419,0.2723529576497705,0.19652132817398793,0.1446682840401674,0.18390653317728067,0.2576808388149703,0.26977698896636526,0.21375690555072446,0.20364613850966107,0.26821056166108637,0.32921358374712817,0.3169433051135617,0.24060130643125333,0.13173878159781904,0.03261475757402432,0.051755604307410774,0.16305584409716012,0.2844571436403147,0.4073327594480416,0.5300982629509408,0.6587468400651022,0.7718795223807753,0.7509919020724296,0.6418793087994676,0.5325972511816688,0.4296374597602677,0.3580212089005994,0.3293752445967453,0.3207246207832539,0.26289203109345083,0.18122722822666804,HB
0.6444032819496825,0.7041189356959767,0.7842855860526468,0.8538627075126912,0.8868034821893709,0.9086474866141965,0.8946727669803864,0.7982590817088531,0.6971224699223473,0.5787911321146526,0.5117583687132159,0.5969505176634022,0.7237301932514868,0.8435773830196387,0.9451938774234832,0.9197082363759501,0.8492529510212579,0.7829548187672126,0.6942007112923048,0.6804406864564843,0.7473463531534954,0.8037208881304612,0.8132727375569819,0.803978155861454,0.7965023877596915,0.7708660193325076,0.7012818077869631,0.6734848145304018,0.7394957845619159,0.8209748379508419,0.8760156294777175,0.9109090546468075,0.9314511552560061,0.9251326532013586,0.8342345157734294,0.7175087708234635,0.5995601541983973,0.5458439068941636,0.6434359721808345,0.750534938583556,0.8620518053115112,0.9604178022614478,0.9391982039367044,0.8631766023923906,0.7891331202455951,0.7158014185835977,0.7306199459745948,0.7911108850342485,0.8319256997057074,0.8392374843996413,0.8504378354886912,0.8304239463330194,0.7791411162919928,0.7086137145811977,0.6854804047225393,0.7556731201422144,0.8373284530793315,0.9015597594078375,0.9377576218896653,0.9445769132595865,0.9179952518418995,0.8146403882710376,0.694385339582918,0.5718095426841951,0.46898147062661044,0.5068842934793742,0.6240803846160483,0.751313142443611,0.870768838521877,0.9610918003660014,0.9281223834985417,0.8637240968351765,0.7910626965600762,0.7123309349390883,0.7434523887030926,0.821117454610987,0.8776877256718467,0.8951865521076228,0.8768057131502067,0.8400022164619225,0.7828546270604562,0.7282014177188396,0.6842546186393494,0.7242000774520669,0.8118951870173226,0.894483046952413,0.9518980704392137,0.9869206956528307,1.0000000000000002,0.975991467321011,0.8806950456078371,0.7613780483256856,0.6414586696470475,0.5189345634159392,0.435172868523777,0.5110892137389991,0.6403198666701193,0.7698801980205217,0.8907616708615287,0.9808261885471945,0.9479183178865027,0.8735042121483036,0.7979872280428253,0.7129973684572402,0.6811736065721028,0.7501735624783341,0.8115307026818634,0.8325335274338383,0.844306444628806,0.8394049617867243,0.7897231553458732,0.7303576676931824,0.7063446413175549,0.7150825217175953,0.6418125513815534,0.5220660641226427,0.4376480776943663,0.47240684273721767,0.585375488441439,0.6234437823405605,0.5252765152413279,0.4395016647379948,0.4796711079145006,0.5983161153673786,0.6821230016368924,0.7370524735973285,0.7875983787238081,0.7936176356567606,0.7787428187213614,0.7458751543235056,0.6682975752186151,0.6047947598556271,0.6432735067113475,0.7282383399123138,0.8124319181945905,0.8619945223118564,0.8007625637789759,0.6762770126666304,0.5551598811488887,0.4289299471870953,0.30135973154714657,0.18106564797468372,0.06474438280208616,0.05856004835005946,0.16460120050739002,0.2870012472403509,0.4104254338390192,0.53371938576555,0.658876035060054,0.7789170060300437,0.8928201840734749,0.9473358886289491,0.9246469729108522,0.87957099026306,0.8094221355016276,0.7154216327594638,0.6453911873556895,0.6328990814588582,0.6874012704715555,0.7391201125376885,0.800913384232296,0.8346905642221143,0.8217468151030018,0.769931301616358,0.6881598671770262,0.6521433487806092,0.7131841804313581,0.8009106268974284,0.8224774120233984,0.7390416329637419,0.6144095174976834,0.4888374825096111,0.3672540416589649,0.24064326749370557,0.12031820753599565,0.012147181214078762,0.025511736955901254,0.1378317561180924,0.2583204405695674,0.38386548559132105,0.5044971538430152,0.627186009679711,0.7485660315112141,0.8648612228248889,0.8959116545520074,0.8841321248559877,0.8337104926843366,0.7567103376545232,0.6770577848688843,0.626410876515193,0.6600113453225107,0.7324179135810638,0.770718971532691,0.8018716778519217,0.7880437136487897,0.7739243183289879,0.7257760350361775,0.6591895511448416,0.6506866814485714,0.7220421142974309,0.8022837538224603,0.8368120452426979,0.7480224313889294,0.6231522359771533,0.5023784029584275,0.3735722676988218,0.2512883792045435,0.12707735596568304,0.0294198953164726,0.07352956640275154,0.18970396823396274,0.3151282442172316,0.4358920425586621,0.5616072709077777,0.6817566710356451,0.7990798459496327,0.8751784029617873,0.8716203338648187,0.8293935832234622,0.768559946307452,0.6873018900779309,0.6178347952834924,0.6317506788367087,0.7003368099046445,0.7476841585938361,0.7602064803985356,0.7591043280405121,0.7620153809934147,0.7116857998669512,0.6391371536504951,0.6033835157873486,0.6652625048456515,0.7558982857230478,0.8021994704402651,0.740613786894271,0.621523480393064,0.49581537969405987,0.37467688799929033,0.2464733986340304,0.12609660321295713,0.010507810744366575,0.0,0.10531024504821085,0.2293307211468394,0.35082167976848866,0.4742756547675595,0.5973805039886944,0.7268324142302982,0.8377530173127339,0.859187729671423,0.8386354176002226,0.7979075693047932,0.7286398212134568,0.6424358380351178,0.5861828817385446,HB
0.9134326369885551,0.9527256828180147,0.9562951546068444,0.9510811149145132,0.9625649481974429,0.9832841135013949,0.9549208919440731,0.8730837738399876,0.7806578350217731,0.6869904926293561,0.6064175696170911,0.5137388294483497,0.42185840242261385,0.32691912714648164,0.25959398832159697,0.3071351770072327,0.398665847386208,0.49049825063832564,0.5855706465362297,0.6726415287381647,0.7507201194945375,0.8298173079485219,0.8637776982417568,0.8287728720527928,0.7700344304358292,0.7394677351948439,0.7659807487684226,0.8061705920479,0.8162823581219075,0.8065877094743253,0.7927047473019534,0.797175807828317,0.8500821214479936,0.918416831449128,0.9726715776337241,0.9841088042631049,0.9857828761456161,0.9879827305294507,0.9999999999999999,0.9802941434791007,0.9050115439340393,0.8122684820444105,0.7202926388870893,0.6386545717534345,0.5492271438481672,0.4555712732004046,0.3635031088900792,0.27025499695862987,0.24674439222679556,0.32918895684191074,0.4208607783377639,0.5152359344185765,0.607875421987711,0.7016144186621694,0.7931611076968913,0.8519218522477964,0.839346917325834,0.7921466836386647,0.7679833253830727,0.7968458861643243,0.8194244984738178,0.8053640241532215,0.786552936931103,0.7688768362208004,0.7997171768304009,0.8639966825269173,0.9174181838071654,0.9282779399802167,0.9279801482864299,0.9384722666939264,0.9620094286265058,0.9500822295060131,0.8725387925407541,0.7821734407627486,0.6891362021416435,0.6057589270132197,0.5160820581656106,0.4244429636685102,0.32914943145773246,0.2651775774876838,0.317388341314608,0.4097332432912749,0.5041039224219565,0.5968794121618174,0.6911246403485444,0.7774831918831023,0.8329310230363048,0.8220855885268367,0.7801132330008756,0.7889622558630779,0.8280709563024055,0.8432183007433348,0.8181477086937768,0.7920148200930975,0.7771612008740733,0.8122706151099658,0.8780088869712078,0.9343868165658152,0.9472602961927913,0.9388825607108066,0.9331475846303078,0.9404273783282969,0.9324915920565554,0.8614847762756906,0.7693501432827331,0.6746463258381884,0.593268528678404,0.5032677339642427,0.4114794680243302,0.3162450088268888,0.24177516830624057,0.27684660303736963,0.3696720627556561,0.46259506471999157,0.5567613422253576,0.6469318168550174,0.7234388825957089,0.7952200978218146,0.8348650997180481,0.8075752009194624,0.7779756678792481,0.7880557411598651,0.732640149865658,0.6503789881578029,0.5692000796974307,0.501832110884099,0.41049657893360736,0.31218148283301417,0.21782076890189428,0.1313269864075649,0.06060838943890168,0.08467460635857582,0.17207063232551068,0.26389927040392236,0.3569721169200549,0.448754812131129,0.5458848012195815,0.6339593060847756,0.7186654252660977,0.8110188424157562,0.8881787129709852,0.9032603762180341,0.8924630894992137,0.8961424618077535,0.9082664629987715,0.9092330806780232,0.8584887102681719,0.7928910001481256,0.7457107938089228,0.7462773117636302,0.7664336102535917,0.7935090179201848,0.8054743089661917,0.7710166114461431,0.7278067059644077,0.730881733009712,0.7697960835345065,0.7949800039041469,0.7432445106559172,0.6549830137782483,0.5582951212370265,0.45993017977274697,0.3668419591270059,0.27231459711291583,0.18028976119018592,0.08651856789891377,0.005669453015257453,0.0,0.08133086316202165,0.17735361164178265,0.26921605192022546,0.3660031922933923,0.4581259449582734,0.5539291963315179,0.6428081370389017,0.7261851384696175,0.8029478221378649,0.8845196443615454,0.9151289189057715,0.8977821163714027,0.8875917725212769,0.8880497881570476,0.8633693413951012,0.7992720534605054,0.7450359615146603,0.7348270031152627,0.7539321921289098,0.7696384510504825,0.7801600655489757,0.7566950833327565,0.7215470708853323,0.7439561820063106,0.7925170273125387,0.8122536842376152,0.7493237922794439,0.6586928344731092,0.5650720970102755,0.47297021708429254,0.37656389813540836,0.2781380712549263,0.18489815628351614,0.09710733961815343,0.03711481087749424,0.07957881007848211,0.16923712458262863,0.2653454053387706,0.35776362226607594,0.45350437383826037,0.5463348102142865,0.6391119596925868,0.7238813659144484,0.811834379703931,0.9003109254058658,0.9563931266189504,0.9532625946315635,0.947494132030409,0.944393966714184,0.9201532764321044,0.8530435172797669,0.7886223696126752,0.7519221665947117,0.7563653197602233,0.7703323468920887,0.7804910786159437,0.7572791237604058,0.7125604762301717,0.6799832550903545,0.7110081718886329,0.7633970861386049,0.8123992398079326,0.7795853839492005,0.6946309558802325,0.5988192433591643,0.5004301016383338,0.40713729317005176,0.3134379945837248,0.2228791183396055,0.13814830186913407,0.09164968389365924,0.15056286627900328,0.24251980709003373,0.33444637734672067,0.42667353085874493,0.5222748199274531,0.616725090710523,0.7000574849838558,0.7892369385313033,0.8782711439867058,0.932886264426907,0.9209648414921611,0.9097943326007903,0.9045830418483606,0.9145230134283647,0.8879054626921364,0.8266665409431938,HB
0.37267362633422074,0.5122899572685364,0.6541898551877718,0.801378817258267,0.9371898487967565,0.9691565895429868,0.8908614720003323,0.8357164749302957,0.8084765722073568,0.776493540200569,0.7237356536981894,0.6989882127681559,0.7207639149343104,0.7549993161184201,0.7502774186254637,0.7169002251811261,0.721734641657755,0.757465349350884,0.7531044517247745,0.7213635539220249,0.7220070919123458,0.7565315752832733,0.7866953906909115,0.7885502385345928,0.8042414976166565,0.7010370516438771,0.5703768095323749,0.4478378556401479,0.3259277142229777,0.35941960282973806,0.5133935990099854,0.6589507876228451,0.7956473155971517,0.9295100409454049,1.0,0.913562188548033,0.8787570864337582,0.8987518423180205,0.9276287883818348,0.9219649128599645,0.8656792378573739,0.8299714108263379,0.8938750855074602,0.943347772104409,0.9767030970226029,0.9412965905013158,0.9169076891267824,0.9153797244943735,0.8715096406427154,0.840197271869469,0.8150478835349322,0.7835598711202847,0.7875217299125499,0.7972501229086726,0.8614790675203796,0.841057402199338,0.7198315936702846,0.5889274046046946,0.4514325738293046,0.3606996732536114,0.45662349060481144,0.6083283706321252,0.7421669189950357,0.873469732254879,0.9830427185094583,0.9606590377544348,0.8682060655634043,0.832107866535603,0.8092820911334906,0.7917270917803911,0.7348337967349217,0.6884213769944605,0.7356217614744898,0.7443904996494615,0.7152560879300669,0.7061797266417011,0.7090670379382553,0.7331247914958166,0.7305206831096447,0.6987683027626668,0.7152184052159942,0.7438206826396918,0.7666104143407368,0.8279355233383434,0.8221456407242682,0.7023012116251,0.5823128025923898,0.4444948751288864,0.3157997783885964,0.3605579875136051,0.5059257414344485,0.6432852306657955,0.8007992948737908,0.9375791102928703,0.9685777776367948,0.8876004837378888,0.8501297620434576,0.8168156075754718,0.8340310748105102,0.7974323669978718,0.7459229120354784,0.7318192521448061,0.7469377871983927,0.7439675540266419,0.706812820968179,0.6983051060855985,0.7153993999817194,0.7074530859644579,0.6901956256444599,0.7195142359095312,0.7564214467443326,0.7468959192145128,0.7623738007149532,0.8119463529534405,0.7356199573446274,0.5964768395746658,0.46772692614436373,0.3365907623736861,0.24891705373820283,0.35878203387034535,0.4900378808795258,0.6151965360911129,0.7613531688477186,0.8753335669561322,0.8758468073339003,0.776444710459451,0.7140068745403267,0.6677160946842564,0.7114716043103675,0.695749277452915,0.5695154704128003,0.4708213324639958,0.3225975953916036,0.1486041630863344,0.026053825676625397,0.0,0.04686343417835381,0.16520003756729196,0.29667726057703003,0.4309169116187901,0.5740211542960543,0.6698356800449785,0.6555888633630005,0.6598684744339582,0.64603955232021,0.6075134302944072,0.608946778025528,0.6266973155096656,0.6034456336198426,0.6046524728328606,0.6377139602248629,0.6389452076343982,0.6211869258028173,0.5731182463101545,0.6325595313049472,0.6999690531935965,0.7332237684304239,0.7390125282784936,0.7279231001050794,0.7718545514135657,0.7321143550542404,0.5925313471442859,0.44901240840369194,0.2789666477216257,0.1254117720914425,0.027483334796092773,0.09297747212195029,0.22260527716703704,0.3577328780009381,0.5011800599497755,0.6376127217200649,0.7113911964364696,0.6746467350256964,0.644883640995463,0.6293718082358346,0.6043398616204714,0.610861400654704,0.6394355181657545,0.6165036517670321,0.6070106274670639,0.620061617862091,0.6605262934419311,0.6566630431923146,0.5994015330803828,0.5770596565504365,0.6424734852836371,0.7076685973086265,0.7215139924334375,0.7410448953099662,0.774141967182441,0.8243753727509251,0.7440711874376218,0.608109269806743,0.46068499626723636,0.3096484638379531,0.18105053735729548,0.17824738998580436,0.30369493880800835,0.4356861743959701,0.5600937587252002,0.6870872837310555,0.7314859006068524,0.7102826943651745,0.7095119310126137,0.7178989600104675,0.7369015022711656,0.7736042421749305,0.8220091677703536,0.8438636778586002,0.8673768830633044,0.8725434699456294,0.8241068196893515,0.7489981481314212,0.7308533921156446,0.7942912964633102,0.8245041692851363,0.8064323352894212,0.7837822059089525,0.7748239301492381,0.7652253191507894,0.6405734279205895,0.49282767743038836,0.3378358818926168,0.20861882090255124,0.09954932548868412,0.07866400315671429,0.185403683825065,0.3151333240626899,0.4475425625130214,0.5681975659429677,0.6642144971889818,0.6392771371603709,0.6375707526250807,0.6483534831653541,0.6221688485778358,0.6275007396731809,0.6461646154953664,0.6279039539948039,0.6126218923787903,0.6340503927853547,0.6632736411770273,0.6330048237273251,0.5923715156485496,0.6073910405616081,0.6676710606773311,0.7172547921665258,0.7370421953932729,0.7713226304942902,0.8179967066153768,0.739941609042531,0.6039164451272034,0.45143168892588204,0.2876549892310001,0.1712296199774732,0.08061643977464694,HB
0.846096542181741,0.8134317757636884,0.747424455577173,0.756033898463464,0.8422262944515184,0.914597008401842,0.9621173021584255,0.9683937424018532,0.8985206581732079,0.7790112605564299,0.6438600573594986,0.5062098545465963,0.4035077487069003,0.3688991752133406,0.49055397588430205,0.635090974614231,0.7714304184458656,0.885370786124994,0.9434032604721501,0.9031885738223537,0.841212471093721,0.8652194546815641,0.942474235155403,0.9637429970553906,0.9320884945803285,0.8949332476428489,0.822575313453207,0.7316137520592481,0.7306000319765298,0.8122123492861717,0.8935571670697886,0.9476005605696454,0.9593271489832307,0.9047319328415466,0.7846762912452245,0.6487644933387746,0.5105276264631251,0.3717523946450507,0.3275558412274453,0.4552095430491514,0.6043820005618787,0.7473064904465092,0.8544992688633224,0.9477577396023511,0.9451059707761535,0.8737700218799747,0.8348814404406673,0.8906961453168507,0.9510498351627943,0.9405547569523165,0.9102969323130714,0.8822613966737158,0.7932986733649758,0.7257362644299095,0.7704499533495768,0.8600907478021225,0.9434882358805821,0.9881819060577834,0.9879296122704582,0.9241177830429255,0.8110859691162884,0.6784180424245401,0.539270970199726,0.3906959885738379,0.26902882501247327,0.3271871142996221,0.46320494313583627,0.6086172942341745,0.7428401257115067,0.8455064302044022,0.8912588210851426,0.8343052228563614,0.7598756362698289,0.761566175544544,0.840170660907571,0.8605404790407634,0.8526832905132724,0.8515980106103629,0.803225938429589,0.7492117559564617,0.7887281063085925,0.8710819203600413,0.9369923075984259,0.9608100557195836,0.9602387220331643,0.871130508467377,0.7388927717537701,0.5910073648013978,0.45165723512068157,0.3104601140161003,0.2675273250393917,0.39560573791254594,0.5393680314897611,0.6777090906050134,0.8010762706887595,0.9002334154703018,0.9390914627228137,0.8925633261463757,0.8566094966664006,0.9256314213002845,0.953482931211465,0.9295334528149612,0.9182001434465183,0.8672834509039742,0.7920163708500407,0.743150688676335,0.8025778067092095,0.8889956031196258,0.9555680428532565,0.9974245753173792,1.0,0.9196696943795,0.7933330181105496,0.7138705839224033,0.8012337624157819,0.9030299994682367,0.9242935488509216,0.852481942979674,0.7464606217293985,0.6510594486507966,0.5216763230464858,0.4106020886270265,0.31569775450220283,0.17990074897861819,0.05652003233876868,0.02507421681044697,0.13048423446002144,0.2766534611989522,0.4031641156616832,0.5305942952363027,0.6687865541610138,0.8053842721803628,0.906931874094981,0.9233919271962736,0.8662891202780298,0.7813614545074228,0.6927977271094936,0.6409684357065357,0.7036205835638802,0.7816384284165308,0.8410517295119484,0.8610856502126079,0.8482190147825781,0.8341564491475162,0.7779000078912066,0.8038348848507857,0.8778132256227908,0.8483736469345486,0.7424479334177612,0.6090105052774435,0.46736816306166595,0.3259022209734517,0.183684123352865,0.055979130315847225,0.03467032378400958,0.15523501028336328,0.29495730782789975,0.4361831785721293,0.5769794262638519,0.714310131296108,0.8422765670769601,0.9023499508759314,0.8830801964091459,0.8055857057123021,0.72235462412152,0.6748395721288478,0.7149918569876412,0.7843408109323495,0.7958159894425405,0.8022079995753599,0.7799284866202734,0.7061435280382469,0.6541040969955989,0.7139224105336273,0.7898362931024021,0.8142228222656587,0.7284647732194003,0.600523294863371,0.4566247102523189,0.31684568858317386,0.17440588456334627,0.04217945486659613,0.0,0.10098701611177696,0.22261635997606022,0.3583764209522555,0.5043267963103895,0.6422148578134199,0.7793826439380847,0.8924966533581107,0.9320450250552348,0.8981979946280658,0.8147137874306383,0.7236976564737159,0.6597635248499047,0.6978462924057842,0.7855733245336665,0.8460828271520215,0.8855632927007702,0.8690403135304496,0.7995670146806209,0.7332650033624493,0.7727295683299906,0.8544344435323579,0.8741457466927272,0.7842157166466954,0.6624251177236746,0.5197465703176944,0.3799384329951705,0.23483170510375562,0.09927442184514979,0.00998116361407364,0.08246629348114931,0.21661744471089572,0.35868187200000756,0.49770559636088496,0.6360617220013656,0.770753640721987,0.8732621623892478,0.8958605158756967,0.8499151643035723,0.7694323331673596,0.6833753703462895,0.6457153346976074,0.7100814838689491,0.7966139295644727,0.8570651014071853,0.8977498250300497,0.8710366976098487,0.7919732493752014,0.7252678281314111,0.7533234760376981,0.8425982255202711,0.8769816784272613,0.802259714385646,0.6767969642229477,0.5382679809705277,0.39411745101760154,0.25446473576594264,0.1136460338262324,0.05131211767646948,0.14702388541271905,0.28734327667239223,0.4270773981312641,0.5678306577577081,0.7052907160263739,0.836046286234919,0.9144162063224024,0.8958900445778113,0.8358071917881649,0.7550219709205241,0.6813682516311457,0.6960259246741471,0.7642424002725665,0.7979509891309782,HB
