0,1,2,3,4,5,6,7,8,9,10,11,12,13,14,15,16,17,18,19,20,21,22,23,24,25,26,27,28,29,30,31,32,33,34,35,36,37,38,39,40,41,42,43,44,45,46,47,48,49,50,51,52,53,54,55,56,57,58,59,60,61,62,63,64,65,66,67,68,69,70,71,72,73,74,75,76,77,78,79,80,81,82,83,84,85,86,87,88,89,90,91,92,93,94,95,96,97,98,99,100,101,102,103,104,105,106,107,108,109,110,111,112,113,114,115,116,117,118,119,120,121,122,123,124,125,126,127,128,129,130,131,132,133,134,135,136,137,138,139,140,141,142,143,144,145,146,147,148,149,150,151,152,153,154,155,156,157,158,159,160,161,162,163,164,165,166,167,168,169,170,171,172,173,174,175,176,177,178,179,180,181,182,183,184,185,186,187,188,189,190,191,192,193,194,195,196,197,198,199,200,201,202,203,204,205,206,207,208,209,210,211,212,213,214,215,216,217,218,219,220,221,222,223,224,225,226,227,228,229,230,231,232,233,234,235,236,237,238,239,240,241,242,243,244,245,246,247,248,249,250,251,252,253,254,Target
0.4810259949105379,0.3828870468522948,0.28325026190207614,0.21162047775379766,0.25949423075329825,0.3588571351818749,0.46481103524799294,0.5645499430197355,0.6632337020746447,0.7276610784643774,0.8042913066207643,0.8898667364261043,0.9135509601932955,0.8847952190374843,0.8390721958122741,0.7923180252869418,0.7829937528727885,0.8251199755936997,0.8546827899180055,0.8433187508846488,0.8032237486034995,0.7951439054636228,0.841204012924417,0.8963683120103388,0.9029768456686912,0.8260821484662823,0.7231755369522316,0.6244666020178754,0.5198514764533165,0.4132963374898494,0.306784875598198,0.2040940499847449,0.11562111283218235,0.11987906509377699,0.2101723605323521,0.3133991223927274,0.4190096975233849,0.5178168755806983,0.6219192323438066,0.7219854720178643,0.8206725900234367,0.9107222450750997,0.9592587386757595,0.9518698783150926,0.9019260405632524,0.8497313901468205,0.8263492069074484,0.8611722707008821,0.9064363564147936,0.9126467564364692,0.87156319393974,0.8189238599625944,0.808586975826635,0.8634589381839145,0.9057402708045889,0.8679250703898086,0.7694401151150673,0.670704066155187,0.5662014128238239,0.4766711933922002,0.39311335531882585,0.3001842823185178,0.20197453729825698,0.10092074916578253,0.05813856939421547,0.12898842672026622,0.23367998222151753,0.34024029000720757,0.44678066989237364,0.5504946052965182,0.6495708108451518,0.7503358572286957,0.8469755055213807,0.9038218319627583,0.8866472616740059,0.8512346689556641,0.7981196765969635,0.760299845672327,0.7825777619887263,0.8336320998837118,0.851257901568811,0.8248810099945211,0.7762427252347789,0.7827635922654163,0.8365591648298175,0.8790489002278307,0.8662622725752979,0.7790556471843427,0.6755259003991568,0.5727868164423421,0.47286003067234483,0.3666689439524512,0.2643154257758503,0.18039228610832747,0.08037927070100304,0.0,0.030336926297110267,0.12652679692485902,0.22813788344393504,0.33454592664478466,0.43773794771490226,0.5373101262329146,0.6417421863512395,0.7396688718971584,0.8353048815693488,0.9064968068423086,0.9123164031076839,0.8882185058993558,0.838515287990793,0.7898303886842956,0.7939663933730267,0.8410785030917255,0.8670778687568378,0.8443421492860975,0.8014004839973626,0.8048841427644143,0.8569853531042136,0.892383644510191,0.870845665161268,0.7796490067430358,0.6805680457814886,0.5779871375328717,0.47840751464261355,0.3723030063946656,0.2658017065306807,0.1702142427671417,0.17044186764808178,0.2610998459454731,0.365058281562216,0.4638060349422536,0.5685296385896553,0.6673551241340946,0.7676417674395181,0.8573244865353783,0.8969024601155301,0.8746947355909337,0.8330774125019781,0.7803567249038584,0.7706377303666395,0.8097137534277264,0.8406474860806593,0.834249498696194,0.8165163229666769,0.8447095391161018,0.8709846995852893,0.8770705942506042,0.8510767279974499,0.8082868560028399,0.8195666811393568,0.870483669397995,0.9115304590034016,0.9333997973369251,0.91752918007882,0.849713287202221,0.7556148377928361,0.6574580699224352,0.5543389417635632,0.5011763052434542,0.5768873122239361,0.6606159934493193,0.7457648170540111,0.8387558269750849,0.9404734687244521,0.9883992163875476,0.9426400900795439,0.9044812500792511,0.8541364663348433,0.8411699134302669,0.8845355435281456,0.9046965695077823,0.8842690584695264,0.8386087718620344,0.8295168577398723,0.8833076460450074,0.9278105859913267,0.9525161177700593,0.9439687826651003,0.8879430337716346,0.7982754144832286,0.7005391044053698,0.6010147805000386,0.5737117719612422,0.6606060280858462,0.7623753803550687,0.8611768047685316,0.9522692053784717,0.9691119980310491,0.9213323235943601,0.8791134006167599,0.8214484806655077,0.8238418698779962,0.8732781315975707,0.8887241839924246,0.8696434259387088,0.8229577080445963,0.7964207359754055,0.8394349562316238,0.8872341612816009,0.9203190242974485,0.9431534282209214,0.9148279271717262,0.8247686675662783,0.7257431794778656,0.6266980808406925,0.5847543889809662,0.6677364200983916,0.77131598061739,0.8698543706067422,0.9616965517988868,0.9811829090930341,0.9450397514495651,0.8973491075798855,0.8441602276890144,0.8637454729358668,0.9247307201915368,0.954388532210881,0.9529462835203019,0.9152931279913051,0.8721085668944725,0.8850246265448062,0.9397419696060455,0.9881818722192667,0.9999999999999999,0.9734609833054696,0.9060895771213481,0.8123808600333818,0.7142139692183164,0.6125504603444122,0.5403053973855979,0.5814599934062273,0.6844485510370816,0.7830717021417125,0.8856356877194885,0.972755342153878,0.9749560566818559,0.9383405960812546,0.8861050121055004,0.8355554669820803,0.8519116684918325,0.8812695265568543,0.8907465831972344,0.8780304156617565,0.8351971486592443,0.8276895864059425,0.8733215008983771,0.9144186711126522,0.9474817263836636,0.9512612735380125,0.8955559455298298,0.8023302354907432,0.7064582538357455,0.7168019909666278,0.813535101906833,0.911969429630273,0.98904416214891,HB
0.6022176260702836,0.6553943253842291,0.6719503053111795,0.5963006001889666,0.5342880256264988,0.5560051381134545,0.5002685671634961,0.4224253364593181,0.32025534189058913,0.2141828068158772,0.10437549136689328,0.030604205631627357,0.0924495343253805,0.19920099659674795,0.30680461132914705,0.41789871036656023,0.5284916814250542,0.6347575772643324,0.7439574091627434,0.8471619941480857,0.8784128893297922,0.7934375723829774,0.709257914257406,0.6521529091525584,0.6007993041069808,0.5669875787257184,0.5744247320331899,0.5807307848508196,0.6267353718424022,0.6676520045682259,0.6246559482033391,0.5209488717073618,0.41301090932686046,0.301877052044062,0.19127803710049818,0.08534962844075333,0.0,0.039398317368996905,0.14274013880265124,0.25248606407804375,0.3636767449264676,0.4726485884688143,0.5793796800421389,0.6897020768759445,0.7958349952091843,0.8817299411772967,0.8392229301782463,0.7453149035780682,0.6795056384794704,0.6213158411355815,0.5800967758341511,0.57502491895483,0.5915454292845383,0.6118159953364128,0.6605110132214886,0.6540779496441893,0.557034679251569,0.44719664318619845,0.3410227315272445,0.23218639661356233,0.12642387532812105,0.04673826599792463,0.09471873948899856,0.2013736089597662,0.3122865579078713,0.41926970522909224,0.5279187156744447,0.6380004024522816,0.7441295793075062,0.847247442958365,0.8527989945375467,0.7633214843132519,0.6912408787055302,0.6392687989017851,0.5857407715150489,0.5746160951278017,0.589382566583244,0.6159034606543967,0.6667350337401987,0.6404907849748551,0.5414361832413301,0.4330175400501691,0.3261921362663922,0.21745789608194377,0.11001290071020964,0.028673159211415555,0.056747048499224406,0.15846605418736526,0.26852606664209433,0.3790996638261449,0.48535719632919494,0.5951000489664697,0.7063104101390467,0.8147415359058794,0.8813535724442396,0.8234068689314384,0.7347149550021588,0.6740908322941268,0.6172238417691391,0.5861058739312492,0.5867838428895913,0.592037191767919,0.626355839990415,0.6719549267758977,0.6428099576618551,0.5580633791859113,0.4715617377101229,0.36800935866220186,0.258516615681065,0.15245047901407516,0.04814909157073477,0.013940968589843838,0.1033102046518034,0.21433159992841255,0.3255676806022265,0.4368034086568502,0.5476957021745044,0.6544135314978516,0.7630946799368006,0.8488052488290359,0.8087377127173141,0.7215397726355648,0.6605210877197984,0.6050001415337174,0.5682128589525632,0.5739457268472468,0.5834762344149389,0.6225542640564345,0.669616247958416,0.6554866572438516,0.5585616286432842,0.4519218306163566,0.34466956862887066,0.2384526539761639,0.13150071039945688,0.07710283419259345,0.15282294269255614,0.2630450072128617,0.3709887452182554,0.47861290472263907,0.5894682734111891,0.6965058326654923,0.8040550207828994,0.8667229964417502,0.7996525554004466,0.7328815810093678,0.7864806986142321,0.8863378935602908,0.981907086721111,1.0,0.911038992924464,0.8016180760556257,0.6938444253218021,0.5928475166221254,0.5208647569292133,0.5874628711757677,0.6903799041546377,0.7396982954365179,0.6890750980140143,0.6376512389434974,0.6131944734448023,0.5984888583745782,0.5973000932999566,0.6439935851136414,0.699543942907707,0.774918118517562,0.872395140421452,0.9599732008245461,0.9466957965251099,0.8472473044730204,0.7388519528263315,0.6327076354063743,0.5229449545024101,0.45254303539824714,0.5188591892043382,0.6242338700398589,0.713170998705811,0.7102099706494147,0.6613224575865648,0.6231496111491455,0.6215514515662561,0.6047056214817295,0.636532907716634,0.6943226056863991,0.7583520809407625,0.8515310168413632,0.9470781383370948,0.9814776672376997,0.8986646080420593,0.793021092730035,0.6839250374779553,0.575517686225059,0.4776259113919561,0.485485186310995,0.5868509084080469,0.6898694914330741,0.7390771794536741,0.6974341045094732,0.6448501533584121,0.6177759155294404,0.6004583891362052,0.617835664889339,0.6742787389777627,0.729324058936796,0.8143912951666494,0.9134043077207372,0.9951476703198856,0.9628403184536942,0.8597149320513593,0.7526403119998635,0.6443352902139392,0.5344676235323098,0.47955834421649346,0.5609524998809785,0.6647178763456647,0.7257669791307813,0.6895489048902668,0.6394846718657587,0.6203408778608313,0.6021125296933911,0.6074714763663767,0.6580937199119221,0.7157301533676481,0.7936368537867242,0.8910260334428939,0.9736232212343316,0.9438039586763345,0.8403224292261184,0.7340048952869631,0.6235849231951021,0.5167754099238082,0.42904954772477666,0.47062670367298765,0.576637641288684,0.6806631024645311,0.731065493673253,0.6854826053638641,0.6320041840729633,0.6037884833340303,0.5900712668179,0.6070600894443126,0.6539898283363672,0.7091998819919318,0.7841611867770466,0.8813250772100012,0.9666439495106742,0.940478611829733,0.838946749321198,0.7309006955784338,0.6282674358004623,0.6121474296003309,0.7030444422399873,0.7267826626155125,0.67902685266672,0.6255397546322938,HB
0.8227550834322886,0.8228892383699066,0.8533485785078742,0.8595629551813061,0.8161810522107881,0.7400386500474953,0.7102569240136488,0.6703135248818693,0.660729970358883,0.6380697919684374,0.5617914196370138,0.47812964305340144,0.3945462011635963,0.315456344776066,0.23452529068416184,0.15076575755610044,0.06924437345118106,0.0,0.004872048903611925,0.08086130760864418,0.1646361150642761,0.24845921718261055,0.33079515966850515,0.4011243818334226,0.4763929905757105,0.5573871371128646,0.6268603604494772,0.7037220566021235,0.7801319914744119,0.8357794254094829,0.8393986585018242,0.821159884026223,0.8024385641616022,0.7727104194572895,0.7351552419331305,0.7478841359437568,0.8022781499069424,0.8445184751077216,0.8536325623659439,0.8501787054033186,0.8472748557742055,0.8286807439863925,0.8202436618226264,0.8523107763644694,0.8663174116335829,0.8265463386166508,0.7461931724915719,0.6623839774559251,0.5785557031415577,0.494786972019975,0.41415500726387644,0.3348042079078486,0.25117200326005207,0.16839502511512272,0.09040233645419404,0.018986255622078452,0.032709988092264886,0.10947456002642841,0.18806284135875473,0.271381193136606,0.3513120698990593,0.4313314868709974,0.5146351468666744,0.5869926607735733,0.659162648107417,0.7380525196085815,0.8097765474016115,0.8444301180699899,0.8408494545787136,0.8219413831185213,0.7867219345705011,0.7466532510640392,0.7167782218243067,0.7457059027898246,0.7995628708549453,0.8345499827445874,0.8381205221354587,0.8343544499375174,0.8347157176511039,0.831000503100031,0.8088713851526718,0.8234886449539708,0.8550454442970467,0.8591990770793178,0.7992435764622555,0.718578675260242,0.6367209520128406,0.5583592486815286,0.4750517959602467,0.3913321956315896,0.311340421825991,0.23138077853165273,0.14769449367242515,0.06677107722969255,0.013043154809550872,0.044816022014215084,0.12201631629987064,0.2001445400819909,0.28321942091927477,0.36464942279622725,0.44333826751704575,0.5267821753870013,0.6083583224100865,0.6865716538703887,0.762868742061808,0.8220103789676846,0.8416913382022296,0.8368289164749819,0.8202332730264906,0.784608104635755,0.741604889615871,0.716389503792857,0.7518987610662974,0.8048329099912278,0.8335992311827812,0.8345600897340141,0.834526193901434,0.8389940973846307,0.8302563615497639,0.8157567658373724,0.8409260489060589,0.868820959306139,0.8593783622936485,0.7900685805664563,0.7068615134580506,0.6230341089791035,0.5392058346647352,0.45537934345105846,0.3723577465772835,0.29424204102050067,0.21181218494299436,0.1284920782844503,0.05351003825397338,0.03282933007576827,0.09904173480246603,0.17800643860577658,0.25877443755122975,0.3422475893058158,0.42111543632323345,0.5023140203825717,0.5856904781412561,0.6642034687181272,0.7428790277501612,0.8145857523960572,0.8546697532263695,0.8722885526523235,0.8545138506762581,0.7978817782171753,0.7241494869645803,0.646677358291717,0.564614976468068,0.5016761672956985,0.5390933114324029,0.6210878346750327,0.6993064804877708,0.7813584835809994,0.861310667430054,0.9404011044408377,1.0,0.9741020680197935,0.9164902788415022,0.880601826519419,0.851668788130944,0.8520541582298221,0.8608220599935811,0.8587361600075706,0.8543948508574587,0.8590317192017883,0.8442466053142011,0.7994453733201544,0.7532190799674824,0.769503228941184,0.8121356872711466,0.8451288085748588,0.8608819362773495,0.8663665958237395,0.8469990062358449,0.7934991872120415,0.721088171506966,0.6440241346858661,0.5620029476752143,0.49101895438068277,0.51821707420248,0.5992492961464221,0.67730733163631,0.7598853213670597,0.8396715239918683,0.9192085561393456,0.9867946443728751,0.9781121349317968,0.913588933599829,0.8745484538575027,0.8434735638644469,0.844778871329576,0.8577001141419099,0.8536921574410775,0.8559922039196294,0.8607017576950972,0.8508554007309964,0.8083505261795804,0.7590941695882453,0.7632078888644506,0.8023719626364344,0.8377235643637048,0.8587883451426906,0.8668169839318415,0.8549722077402394,0.804805771757309,0.7337027245351612,0.6546651639328397,0.5752919065637035,0.49185031177174265,0.42992035500841586,0.4697742722039029,0.5517055713391196,0.6351413792903372,0.7137640464320624,0.7952759503172574,0.8775827192612825,0.9539847608205704,0.9943106742020141,0.9440945840730374,0.8942772895895076,0.8720288997395841,0.8482274024188398,0.8650262229288984,0.8709044303197945,0.8707192577859902,0.8759047228563005,0.8643994568586458,0.8203285061547051,0.7676340656735275,0.7715344871848159,0.8098049848382652,0.8322259683732441,0.85094484511723,0.8656166775007886,0.8554883624097919,0.8008429794327078,0.7212868133916307,0.6432362219203335,0.5607129799089546,0.48917174610417147,0.5121455664342064,0.5935856155068032,0.6739708462035275,0.753544275153886,0.8358449549862775,0.9137834592274644,0.98729497571873,0.9928832501545956,0.924840391264902,0.883766127777773,0.8545632708454173,0.8476808438981497,HB
0.8017219325431406,0.8021964694961177,0.8013097327121055,0.7861239427293087,0.7451498334056341,0.7477350253789643,0.7864344555898846,0.7609426135134709,0.6671235522546632,0.5671810673538442,0.4610625207183192,0.35717720171422496,0.25403482425429025,0.15127362358451513,0.04916611234049184,0.01745881071224531,0.09735893039021382,0.20297275460675301,0.30732714143770723,0.4175851949924225,0.5229897917876372,0.6314119348064946,0.7361924734154186,0.8325538087993907,0.8258560408942666,0.8099480998457453,0.8120480671354542,0.8252682121127002,0.8717077157544595,0.8634836337578475,0.7971951901477614,0.7557129629791972,0.7686320683679759,0.7829240558870891,0.7856843804970826,0.77085831574196,0.7893766839460179,0.8317834852945185,0.7896989773422458,0.6939887917050163,0.5927265942606497,0.4888607053584477,0.3848200241500854,0.2784739519243755,0.1742360150616482,0.0784046527314135,0.05559375755456064,0.14089539585789979,0.2443840960381758,0.3528353922337062,0.4570054184016048,0.5613464875213208,0.6702994655685972,0.7754397559742157,0.8761370430836024,0.9119750787881131,0.9159204942595234,0.9324665926361269,0.9608726477968379,0.9264641939131637,0.8599537553358327,0.8285573408402791,0.8160129753145797,0.8155114912077732,0.783618649683345,0.7735993501554699,0.8073288012861461,0.7842769456238827,0.6862523276373056,0.5848376501014976,0.48146330636516144,0.3773013464777084,0.27111484265492947,0.16770387455504498,0.06645702208017346,0.0,0.05659488281835756,0.1593820720634378,0.2668276349231824,0.37175472212700567,0.4762145296132496,0.5839848308414721,0.6883416407738441,0.7885298727929773,0.8308398937053161,0.8376210692991035,0.8710659966356102,0.9025081832914852,0.8852157716868385,0.8220509299038339,0.8026908457600774,0.8027209596360898,0.8064725776130663,0.7768899123515454,0.7372947719972762,0.751142199830505,0.7903015385357555,0.7387852505697381,0.6337415414256726,0.5284681057314959,0.4269178834866496,0.33057823305493783,0.23853118407814589,0.1348399560292617,0.03598339418740393,0.01714417485204711,0.10771070777605085,0.21963956906465687,0.3253816806719876,0.4335283667963983,0.5385804853547043,0.6448166878258157,0.7497851951763355,0.837497947354249,0.8235970272305912,0.7999862505935564,0.8107759814034889,0.8267063509640307,0.8347153612631499,0.7948473328464851,0.7428310088933863,0.726730601090009,0.7387618011512305,0.7390968672489153,0.7183406443870686,0.6946138455272051,0.7167806883467216,0.7686337541647597,0.7470125776686176,0.7300692487034359,0.8043703268229676,0.8139919593058627,0.7709802623688238,0.7595278435479305,0.7970387102565037,0.8001058885280918,0.8081215440605145,0.8176428512825211,0.7977886736364117,0.8460679057541196,0.9071418701655156,0.939744874555063,0.9020115931455479,0.8729950123085519,0.887080103385598,0.9196728155721596,0.947925069348192,0.8650648822707789,0.7528941573948462,0.6403297034088706,0.5327245639972438,0.42681453826450655,0.3226596830240869,0.24638542300767718,0.30641634648475047,0.4082463584577365,0.5100676518002822,0.6138970010375033,0.7152331279445092,0.8043309410327062,0.8483176394383942,0.8211962405796371,0.8056414776063543,0.8441080033950694,0.8604691286008825,0.8750800432448966,0.8609920736461216,0.879734892950732,0.944247801944387,0.9674964431324125,0.9324974229331959,0.8909228101199247,0.8754273401941151,0.8655699468343252,0.7964332741146567,0.6922038062300073,0.5872259241172699,0.47629234854475877,0.38054853870218786,0.28274913176991845,0.1857443715914595,0.21418266175363976,0.31776429532946837,0.4229725040001393,0.5263144855589079,0.6281795588764927,0.728191009626145,0.818124503120742,0.854683193333299,0.825040159911063,0.8152111912419244,0.8491206548261836,0.857983440900248,0.8616785807896099,0.8788589775641258,0.9308597380677315,0.9924339197356475,1.0000000000000002,0.9662659958087321,0.9587675906187314,0.9576420821339806,0.9623779762541449,0.8855572034265702,0.7824128886030703,0.6723385521871992,0.5666552867628984,0.4597795810765062,0.355397907835145,0.250307579910394,0.24749664335624777,0.3463137134538514,0.4507667831424893,0.5547218638885869,0.6576842891037329,0.7581877577342686,0.8451082206704299,0.8872087142693281,0.8525826526865896,0.8112778239694445,0.8256372782599877,0.8324251558115692,0.8249465401844882,0.8071636397417923,0.8210093358178234,0.8870428155713472,0.9352699393274448,0.9167097511416862,0.8947072043904931,0.8905284271366072,0.901154934656222,0.9607989505808023,0.944272332668809,0.8633093776330099,0.7787437519554734,0.6961672141860689,0.5895394039840594,0.48516943157555326,0.3768382258454803,0.27203255441666907,0.18407503038602124,0.2346042160071422,0.33845357842416557,0.4461286753427196,0.5497023197833681,0.6508046833259991,0.7508328232821229,0.833339184187484,0.862588511179472,0.8316570638619498,0.8127770376626562,0.8425693472121734,0.8654871148910082,0.8571363923633184,0.8587584496091281,0.8761912681019093,HB
0.9288344464937962,0.9339156183023501,0.9246171507168267,0.9156973350760474,0.9447581469492435,0.9618662275196467,0.9091474418117115,0.8285621701231297,0.7417626334776474,0.6577814090622521,0.5725725809654846,0.48382629758637774,0.39798917545620427,0.31455190261487564,0.22642583803951688,0.1434044520337998,0.06299936579447518,0.054111952475861425,0.1279503268545129,0.21603314433589327,0.3041997351690954,0.3868351835320831,0.4738383115447905,0.5621616032690987,0.6449235830663108,0.725086757590922,0.7989363264573163,0.8815423003126134,0.9461641470187264,0.9438019730620325,0.9126419149859516,0.8698595454347996,0.8329046120078448,0.8311288833422249,0.8654514394988085,0.8939427870629234,0.9019578847370519,0.9045207832630547,0.8940284335102989,0.8901383802096013,0.9225900594557505,0.9425388858768661,0.8883293468866419,0.8053119163839352,0.7225908419397197,0.6355209398964107,0.553073617760444,0.4653823221635859,0.376610298859974,0.29162287300642775,0.20742729298020302,0.11903514376000368,0.03701485014474826,0.0,0.06534389040404098,0.14757689820265996,0.23543255966860366,0.32354133022806153,0.40533026479167267,0.4810561716232543,0.5572762318189038,0.6199165613013661,0.6863084886953014,0.7695341541831139,0.8533108144618654,0.9226427009452188,0.9280774118351566,0.8942782547736724,0.8566879943447782,0.819412203749499,0.8107252338196799,0.8416266619445837,0.8733111839114148,0.8801615793824625,0.8800120718610583,0.8804349651044888,0.8719361991238642,0.8876022390742248,0.9281191322307988,0.9362439909049344,0.8729618472453217,0.7910529730116947,0.7080712398816348,0.6226558050109642,0.5352359740821376,0.452772107548865,0.36491506059137524,0.2771655261634124,0.19481255473717363,0.12004938875475435,0.12632567582120935,0.20046698003481922,0.2878870227928697,0.3703274152499677,0.45790445199020435,0.545052903077811,0.6276287355043367,0.7154516156608254,0.7991034095490747,0.8824462615259946,0.9442233139107631,0.9410917722475739,0.9132025064332455,0.8744611736819144,0.8415501125232802,0.8440327871491894,0.8843109241732031,0.9163331367403421,0.9261419452119767,0.9199203561270074,0.9096519875302403,0.9085618467306714,0.9409374678988905,0.9492128315069087,0.8856180317755641,0.8015367296343717,0.7164131842802722,0.6324671403062602,0.5438511369498119,0.4581306725098523,0.3745931532851462,0.2863090595958442,0.20283584251161668,0.1174007319900835,0.04303621426481652,0.05463619223424443,0.138446774531642,0.2262206689737083,0.30866027712378563,0.39623893716062786,0.48487045740162504,0.5686900691288382,0.6540441381098979,0.7397066913805866,0.8229639822107219,0.9049201452310013,0.9507513775109625,0.9330142120958812,0.8976161152349581,0.8552041067059607,0.8267510047507304,0.8384527923778239,0.8762970243615164,0.9004706786053659,0.9142961071145371,0.921441414596699,0.9010017092300838,0.8618074469355789,0.8562656543615529,0.8955849417017728,0.9360208449844071,0.9669200509993227,0.9898355080877302,0.9677124259936262,0.8930619408224475,0.8060609062272973,0.7274244177740993,0.6458920845794708,0.5694682563759962,0.5727372767723456,0.6556575881278438,0.7432301758206982,0.8255245914389179,0.9084395411090743,0.9786506905676574,0.9889547359799123,0.9608287592930481,0.9311927751400998,0.9416585753018193,0.9493714511986303,0.9491685640875259,0.9386091976008598,0.905318211082296,0.8665603063272226,0.8777386050617219,0.9170809450298972,0.9511981542716995,0.978159588710502,0.9999999999999999,0.9580200888279472,0.8943538692373648,0.8266637523699457,0.7433081636774469,0.654580209157026,0.5657257369480672,0.4815809381175452,0.47690270712412575,0.5543870982092193,0.639712998314475,0.7254002475134186,0.8087495819250657,0.8924390406022878,0.9649159637231332,0.9780018480345,0.9509070161027505,0.9115012281012272,0.9028374482667095,0.9176645573765284,0.9113446741378165,0.913047507985968,0.9042352978064839,0.8744759237977061,0.8430513595007364,0.859432081413772,0.8952046525112122,0.9321070763096683,0.9608980803315056,0.9607617470660775,0.9013109633978592,0.8206894394662027,0.733030910306696,0.6441747386151239,0.5555777091498416,0.4723142933052952,0.4174451189093532,0.47377415270849677,0.5619726887878406,0.6455549598632119,0.73104058871816,0.8150533743229623,0.8984630581760283,0.969093522791948,0.9783713266983195,0.9493314675210657,0.9157417524566854,0.921924076703467,0.9272724440700296,0.9232017127925075,0.9175893762510049,0.8919417076970381,0.855416405257812,0.8650572357793554,0.9072173169381045,0.9454026429844716,0.97349400595978,0.99181790311577,0.95415715224555,0.8740953732771132,0.7918368189174193,0.704054900043421,0.6151984526694937,0.528224161274322,0.4981163598435526,0.5717428970978934,0.6603282906599296,0.7444248192628121,0.8287322687236623,0.9103509151555059,0.9824363384689178,0.9981219014444688,0.9759749884223522,0.9420191267660188,0.9496556849279324,0.9581076038366548,0.9576507814488869,HB
0.5397951688219105,0.5321083510230729,0.5863807427814294,0.6378469148232515,0.6481163063144684,0.6212802447461976,0.5796539568574794,0.5832407821099772,0.6415288731476378,0.7069449015057616,0.7039977694902699,0.5969363834608359,0.4554965305202998,0.31658808770272273,0.17377979028438295,0.06368830554866278,0.014047905041998376,0.10065176749891558,0.24323409009885477,0.38107984172440945,0.5325620329233867,0.6836583673939742,0.7581999368813848,0.7324311137472357,0.7122086803469738,0.6659246943407906,0.5999395090211794,0.5412443129905706,0.4951617175968841,0.5213123973012044,0.5833331618711042,0.6258364824817768,0.6476274750577811,0.6361369152991401,0.588005630230362,0.5868092692869769,0.6445739731581535,0.7150265062258185,0.7375165972476521,0.6483047946651692,0.51400073444709,0.37196075760201186,0.2323830923625172,0.1118960252331207,0.13336901259616152,0.2624705140429069,0.40661266471981516,0.5462377713325486,0.6893137108373315,0.8041432377894706,0.795105848942868,0.7697695922442551,0.7273903494389731,0.667047611671264,0.5936611131415201,0.5268938461546244,0.5090680015400082,0.5598936439769249,0.6171382642902592,0.6484364680577257,0.6429060222669123,0.5969606062579254,0.5745704908548679,0.6137730136400195,0.6918832592227466,0.7635667883830424,0.7423579796135531,0.6129748229896448,0.4747287456403848,0.32628264537473717,0.18711057041789747,0.05228521450912105,0.016197664999594075,0.12638145155449676,0.26303041199985655,0.4092921144989541,0.5476937229315784,0.6948996103703347,0.8135261420293549,0.8255739516667093,0.8054460038736604,0.7632428256362571,0.7051953118041165,0.6331258672064943,0.5669347578552393,0.5550460019946009,0.6044563653566648,0.6514855622093747,0.6796079785181517,0.6768722041914823,0.6291398022469696,0.5947455971609665,0.6328073394941196,0.706163424185323,0.7682085285124427,0.7300482854754278,0.606447931487883,0.46674760941936766,0.32445085700902565,0.1787575850510752,0.044445830800168284,0.0,0.11006564785721329,0.2517372186883384,0.3931376995908211,0.5371323705186057,0.679636074121682,0.8225255881960942,0.8680194136884873,0.8443287796937593,0.8129314305386419,0.7589795914505193,0.6991760831475555,0.6498479319562871,0.6401751301868859,0.692957033478049,0.7565848354983178,0.7806245542288752,0.7857117231463762,0.7459168264837306,0.7223549539997833,0.7604835526639269,0.8256883912173083,0.8708264121812901,0.8182946165229823,0.6911924074070743,0.5420815486032828,0.38841534063300287,0.245298779538226,0.12939234653153564,0.1479334315821652,0.25068576899454076,0.38054885731943777,0.5218446467965117,0.6657805692128149,0.8065133971024858,0.9195919627064333,1.0,0.9600206931518467,0.8288227652379514,0.6915133053259104,0.5805575202961224,0.6535040880550218,0.7912475416439912,0.9057207543163046,0.9503763085833827,0.9214182496898284,0.8586902608279812,0.798785625043708,0.8054339420756444,0.8491679537149777,0.8558964662990891,0.8416951554277898,0.8051247541352655,0.7393333313921042,0.6991093635695562,0.7433325650679605,0.8049684792940042,0.8546575754115628,0.8919928041907026,0.9191673492915524,0.9708002003645233,0.9965074932330742,0.9043080822279643,0.7577928483508303,0.6039119883205251,0.45234533096041263,0.39658558628779295,0.5159396424394007,0.6553917869070807,0.7794410133035039,0.8555659557579549,0.8383542631977301,0.7949927920659685,0.7165977887905028,0.6765090879976117,0.7135760707262904,0.7426412220341252,0.7412981785878583,0.710655734824686,0.6636471835060953,0.6288102105547186,0.6782108207967723,0.7446528069000848,0.8056301055845587,0.8498172778789357,0.8798197577265325,0.9251692696991274,0.9603337408069277,0.8626557831985311,0.7260293038314578,0.5786610375047032,0.4743278557594004,0.544785775058136,0.6824609156657089,0.8001626534445716,0.8470314247521715,0.816827049953353,0.7452488063657863,0.6726078207819879,0.6597917507285649,0.7033376678687491,0.7155353680487702,0.7002365734806757,0.6679530567502217,0.6122416521789797,0.5893076604677936,0.6445258451104436,0.7188601114243145,0.7803509131691206,0.8237669116470734,0.8523635999663202,0.9062654666795851,0.9085366046334,0.795188108339933,0.6581475491655429,0.5399204225022816,0.6110116272831041,0.7327202110099194,0.8078295014470784,0.8080038804791307,0.7644472973976124,0.6861096995978393,0.6601430322296094,0.6954459591183468,0.7152406755861644,0.7008107194090569,0.6749317916776452,0.6248602738025206,0.5726545701984604,0.6006149982181159,0.6619077906941087,0.7257494543330569,0.7651695933759064,0.7865024615719176,0.8388940446597482,0.8954918987922134,0.8258754092459899,0.6879554491202482,0.5503857123844544,0.4325727688347736,0.49636689750066454,0.6368437422645172,0.7495193052538722,0.7942297690110149,0.7686948137517322,0.7049204978946331,0.6471785713435074,0.6628739723811252,0.7046857168415666,0.7178895741016498,0.6970498196107613,0.6541018382228097,0.5992656041743469,0.6194574348762059,HB
0.9498835170720863,0.940895910654951,0.9034320701154808,0.8607583207967093,0.8321089097434025,0.8075248765376271,0.8214538483869527,0.8555618020326383,0.8293700148466294,0.7409957516253465,0.638838892371101,0.5417360324311307,0.43928941219743756,0.3416552174502021,0.24059664677686665,0.1424490450072231,0.05103700132012534,0.036848127027040434,0.12191334493520212,0.21893800044346956,0.3207843765940659,0.42349045929731144,0.5205584500473013,0.6231500998222099,0.7222257494894435,0.8115016868822664,0.8997398176677018,0.9464017847794477,0.9359825593381379,0.9245485828111972,0.8833009154024445,0.8350226000924079,0.8006633460498351,0.7748414739280252,0.7725413512453165,0.8173123919632299,0.8362360227321921,0.7925838871292519,0.7013749222508909,0.6028599457297656,0.5040423719071776,0.40351837815156144,0.3053863928533349,0.20172767480829001,0.09869994177058083,0.026102414006153096,0.06878690925930153,0.1642829266790482,0.26494216520647496,0.36755973119716656,0.46458731915947626,0.5644564452048244,0.6604430664388421,0.7522724946708683,0.8463269405173262,0.912595523285239,0.9112068549257988,0.9114572864067279,0.883742647180557,0.8325349885847175,0.8029335789210017,0.7907216022437666,0.777837162469365,0.8176670792132963,0.8434858446885642,0.806508390679398,0.727192593981012,0.6281302809924738,0.5307937972150703,0.43017414277081323,0.3324894329275234,0.23047921301558028,0.13364177905267227,0.0479365667595999,0.06617842687980946,0.16085724658174638,0.25786349776960105,0.3604408877110312,0.45869586533548357,0.5589793462032464,0.6572520321695454,0.7537492077494352,0.8436192077739255,0.9277507831682728,0.9630543645563374,0.9641813636101866,0.9567363169344221,0.912577271117009,0.8590786070854142,0.8024096421230891,0.7557745335113966,0.7382151486783339,0.7762748215482205,0.8035543735302202,0.7588764895029538,0.6634521327618752,0.5664642382091454,0.46543116859323685,0.3683848710314832,0.2668967898719359,0.16983487923217333,0.0695937561263883,0.0,0.049465979111020686,0.14509106036499164,0.24740858919237563,0.34619893866332263,0.4461361938683017,0.5476960769455601,0.6449790402072795,0.7424433982716332,0.8307164057469563,0.914777980881762,0.9408857991609589,0.9272923693797757,0.9150850904159304,0.8717569814183439,0.8316595531135633,0.8029677185517667,0.7829030012206211,0.8136774198509114,0.8424764106033082,0.8221195374425891,0.7374340881978216,0.6354414965114481,0.5382876509808867,0.43741412170705374,0.3400520314711508,0.23787503258652565,0.14084868706541886,0.04397924547518672,0.01042049247112209,0.08755127652834471,0.18415646551952491,0.2861629319630741,0.386997237851493,0.48502086762874597,0.5886474516141811,0.690697051199709,0.7811133646654724,0.8688264726179158,0.935679058077781,0.9312667521735363,0.943476831603264,0.9599955202106683,0.9739183951856285,0.928816795163462,0.8382463018466637,0.7469258783874269,0.6526743548188687,0.5538889260447288,0.4664423494522727,0.4928081846912922,0.5915241236628606,0.688802343210329,0.7855292075080398,0.8566232921869541,0.8782955992501726,0.8552276253899416,0.8199857524395706,0.834802488285276,0.8579163608822413,0.8954631225009873,0.9408091053025596,0.9568753335765581,0.9695849030643933,0.9765167652012468,0.9177086815254605,0.8303371323049609,0.7414297496735047,0.6402079419727762,0.5362287127289249,0.4343312616522983,0.38783118041886033,0.46257748063983817,0.5613038646531174,0.6609734006020025,0.7573343976555653,0.8302054148161464,0.8324027458525325,0.8028435148819779,0.7732061743567922,0.8057104690034183,0.8621170317616689,0.9175815192005037,0.9655798202956456,1.0,0.9956363873418939,0.9996306276577096,0.9846728084029406,0.9092247711587664,0.8219839926125057,0.7299474776466977,0.633213804862053,0.5314173249701737,0.43782735779283444,0.4185483265110277,0.5112202283714975,0.614081065443161,0.7108394937512548,0.8059033435809542,0.8744101613967126,0.8766474792547398,0.8583406626028014,0.8199323580202427,0.8241186067419461,0.8353772710768983,0.8697146900806949,0.921374832624807,0.9415810893823553,0.947397675206961,0.9487250613103777,0.8834578070570356,0.7960017356108409,0.7076307068171903,0.6129463903314907,0.5138026429123241,0.42701219661030154,0.4435660380294817,0.5341476578377695,0.6211196492194138,0.717219642364497,0.8151165929548807,0.8645847446102837,0.8659716680525242,0.8248469538114609,0.8105143570540232,0.8317313687807357,0.8695573963268355,0.9214991227751363,0.9590452037499424,0.9695098127710851,0.9863244970068288,0.9710693247563031,0.8903063779429932,0.7952274636575425,0.7043616466685314,0.6087933883433891,0.5102837484086284,0.41417833511854263,0.3870397793756528,0.4710471149375315,0.5636827026279623,0.6517859659933183,0.7489088626737403,0.8395555248444846,0.884184650688393,0.8894434732857215,0.8537645568620265,0.8466636701952472,0.8665778156983284,0.9001637132716032,0.9468723158303627,0.9813298452094137,0.9815140548873358,HB
0.8019434496941105,0.8234686471314765,0.7893104312961086,0.6928293278155788,0.5786050949429025,0.45679828788114296,0.34279340802256497,0.22855295864573888,0.12460672965764763,0.1352097328398414,0.23867665624628254,0.30302319699413527,0.3693306229735951,0.4615589435752092,0.5592953897621338,0.6687592501523474,0.7899754262209733,0.8352973031533995,0.8035348442407186,0.7765262383621723,0.7697198767329496,0.7278580673844206,0.6940664346713055,0.6893821475109934,0.7182556801026836,0.7477750870476285,0.7458437054220219,0.7200192281507785,0.6811284443212426,0.6771216016044144,0.7274919666397852,0.7767837850752217,0.7743293826838213,0.6925056485099916,0.5766861700208277,0.454740511177687,0.3382692845298543,0.2152447455034454,0.09839946785216336,0.0,0.030385616308609364,0.14067394109257325,0.2667595326971153,0.38667172375627734,0.5064178344278045,0.630322224797701,0.7454989622193087,0.8206410717965666,0.7880351558579273,0.7601615982664769,0.7332816131671098,0.7038608752701392,0.6767190694170169,0.696030636779557,0.7179942006959936,0.7396173008600071,0.725424361552502,0.6851150255709797,0.6556195750937683,0.6922747663446978,0.7563154988165794,0.7746594430816831,0.7612151944742558,0.6749942739969725,0.5626691131220758,0.44209023678926096,0.33196768459906645,0.22898661888440675,0.10492888303523307,0.013163331907024567,0.05885965270620108,0.17199164321312344,0.2976284167550802,0.41359056442759234,0.5377211919890632,0.6550875874589059,0.7644992088458005,0.7895532339244964,0.7634860372514538,0.7381104513844345,0.7038140617115154,0.6604588866674428,0.6449230439727431,0.6719151046077334,0.7179027215666345,0.7650776974529152,0.7708962720792409,0.739448662839437,0.7126429796812812,0.7363485916052026,0.7943165422021115,0.8274674996073825,0.7968541031803005,0.7026409136379725,0.5909380774080599,0.4728709097172117,0.3587327904451514,0.26371438015686754,0.17383422307229246,0.09947025403154042,0.15987279116045006,0.2784221344495985,0.3970579928275946,0.5203131736173465,0.6368460908135631,0.7586352809111667,0.856573812565288,0.84855280539756,0.8171045026889989,0.8001346549590327,0.7648609647221623,0.7130830449607113,0.6923412127380191,0.7176434095689359,0.7455140994360558,0.7417346055205956,0.7199762456233687,0.6736345193980329,0.6839650069269299,0.7379552373545093,0.7850439945793677,0.7774222073506993,0.7052200532073578,0.5905138038034687,0.47316319730513046,0.3574120376051426,0.2403378145618844,0.12268149784220128,0.060548436023637464,0.1331806973223939,0.2494484269981383,0.3499509163842496,0.4628513937989722,0.5867272227417559,0.7023793587349365,0.8082843759954104,0.8090739385946386,0.7772915004030363,0.7548195361408117,0.7121232516292282,0.6597893096353968,0.6659456720558552,0.7196388178454538,0.7764942984321683,0.8137377383968216,0.8354058097468267,0.8747122978113375,0.9322897116260505,0.9003508539865561,0.7939212184735975,0.676827046559672,0.5580705334456826,0.4811046335751006,0.5620008059275001,0.6779109567516532,0.7793104012804735,0.825680553169263,0.8327245148867197,0.8006669767689343,0.7495079281405368,0.7550339591713375,0.7912347431024291,0.8096265838806187,0.8040145172099793,0.7738111598864426,0.7457996873971933,0.7782912488202358,0.8277757237215182,0.8613381176162047,0.8766998555227459,0.9275931033107283,1.0,0.9655136633139225,0.8596447916236212,0.7444537813410435,0.6186458874738294,0.5517540136157297,0.6392877017167358,0.7501467359255254,0.8428894215745237,0.8779261190006209,0.8832780715846895,0.8500054140887072,0.7893958427570031,0.777428515383427,0.8139417175312436,0.8329286928012567,0.8170322506955574,0.767397155426885,0.7253406686246393,0.7065790463821173,0.7329727489461377,0.7741146197261104,0.8046341115759397,0.8298168087998983,0.8752201501231718,0.9377101641973709,0.8785682047522707,0.7696867763806163,0.6570493605095833,0.5398144631368256,0.5321307900329346,0.6411419117693411,0.7562843004313122,0.8209961476538439,0.8309593959617438,0.8269728523989861,0.7883846447724645,0.7217264105049264,0.7239606355329826,0.7624800088855839,0.7954780322035093,0.7951768617573087,0.7800994630486384,0.7507069172758833,0.7429754105261237,0.772314033970344,0.7979317699862789,0.8178890679100532,0.8405192639442447,0.8922824634733351,0.9515256383788264,0.8929309140996962,0.782874248013433,0.6717363846599773,0.5525099940107907,0.5243846688165887,0.6281428170594361,0.7393648671909827,0.8236539648093699,0.8446310955869349,0.844625819076823,0.7997474790794565,0.7396467255405184,0.7482870336905982,0.7808016094000783,0.7950614976592956,0.8096583335312326,0.793576351323642,0.7668709434255736,0.7593457751908952,0.7930432070019151,0.8377469549738463,0.8442407086031309,0.8680871399053549,0.9252856406436631,0.9462705307316366,0.8569104571814252,0.7400372080774207,0.646367028234085,0.6899208319889802,0.7932263438606011,0.8546067111307716,0.8828440769442216,0.8578812511760838,HB
0.6754380146590645,0.720733863408047,0.769911153534307,0.7954714126600458,0.7937050917076719,0.8019624313957595,0.7935893423475294,0.7613295384202804,0.7720606137235865,0.8132511001038786,0.829673336987316,0.8322933300836503,0.805201349868171,0.7393593033231282,0.6659102979826851,0.5942991740523652,0.5178225984786852,0.44124537620628423,0.36957032923895794,0.2933742983318799,0.21634612766024497,0.14430579337095784,0.08149973120872578,0.10273451832906377,0.17254021671096287,0.24736299566005593,0.31982322300945387,0.3937700074216228,0.4654118644026185,0.5411262578009318,0.6131479683416582,0.6885796147405107,0.7638234970190257,0.8347918864882858,0.8678585714601658,0.8210702455302418,0.778301022637177,0.7414202571646454,0.7019520595207248,0.6587967093125483,0.6096479192127721,0.5687861366393764,0.5686754538467343,0.6139428640374859,0.6648855747087933,0.6904209816137351,0.6910385813185626,0.705553397037011,0.7121821510163958,0.6926755834241333,0.7073711657054672,0.7496983392514601,0.7837397140271692,0.8028576714312851,0.7951469632216676,0.7380744200830419,0.6653565567434213,0.5931066796604035,0.5181668857880742,0.4408081794371811,0.3667621956224679,0.29359653832219856,0.21631595971522,0.14116621243170868,0.06898296215041011,0.0,0.0017199590662292374,0.06671037206079666,0.14220685504389785,0.21908095994796695,0.29096354365265664,0.3666496314251103,0.4440975091638891,0.5211879380283907,0.5934230533892723,0.6683873474761285,0.7413814837950138,0.8101696394237768,0.8144803546533094,0.7771116003014317,0.7539319814602575,0.7232667691819149,0.6890773047189164,0.6607331705658769,0.6776143472518478,0.7264275093993543,0.7738683243822438,0.7970706402181468,0.8065719281292044,0.815994248251611,0.7992243735311663,0.7679373344964536,0.7810594812330399,0.8162061713804162,0.8329013200734728,0.8352087503017865,0.7970383160315898,0.7268513602720029,0.6531046131976087,0.5799947310452848,0.5033239894568221,0.43148937983001634,0.35570757826138466,0.27928946354203155,0.20763095728422665,0.1313043701233917,0.06254568052768483,0.07149189863257055,0.13862777186913255,0.21505001040331928,0.28880129396833143,0.3616840290248988,0.43345782517414966,0.5080814957503822,0.5797220494904521,0.6560931566404659,0.7324014675218967,0.8038806033697438,0.8597974390422612,0.8291128488142733,0.7903625468092664,0.761653367524625,0.7321141976218989,0.6999278735324207,0.6764747323169881,0.693604041078684,0.743531490312152,0.7837083716443273,0.784507616806612,0.7852307681355549,0.7781116957685278,0.7512525837368494,0.7478449214459199,0.7843456358072157,0.8113978069959223,0.8238989774651936,0.8313491282280524,0.813114495682132,0.7809348584401828,0.7881240069044183,0.8072426700618119,0.8054276162695161,0.8073675723875448,0.8102904947587116,0.7758897636419487,0.7265153714433056,0.7030927266914019,0.7292115714248085,0.7610552031199777,0.7884397682432,0.8194569501386618,0.8662036857571626,0.9290632709676497,0.9935721802755703,0.9851888158359551,0.9164461026265432,0.840977592251022,0.7690725801309525,0.6921936226406552,0.6173125361471995,0.5448823648247302,0.468963945733636,0.3980657773607599,0.3610481440412503,0.4202324406222049,0.4935681710215488,0.5673072992542721,0.6446722282715317,0.7220965127443958,0.7966393377829218,0.8578571288124112,0.86660202910806,0.8563066668067439,0.8462385183483326,0.8203458305533508,0.7989297395413931,0.8250192952801011,0.8403773012493153,0.8320768001009277,0.8183685578297192,0.8055549441091617,0.7652858052292114,0.7128133304258605,0.6855430541970534,0.7134836910830805,0.7482691627499879,0.7770612027943672,0.8014440283462602,0.8500971550317117,0.9131227594474792,0.9772216943644702,0.9838488557814989,0.9153936263622274,0.8398825583087955,0.7679297157370623,0.6910140898596392,0.6162285644498365,0.5437625686430269,0.46959181521448834,0.39928013977969223,0.38393519822470723,0.44878219985592727,0.5227499467671103,0.5994165122047018,0.6711219917267032,0.7440786357648964,0.8116855811865137,0.8382425920078428,0.8267227055853806,0.8129671675316904,0.7860110569918285,0.7472691954189107,0.7300671459438367,0.7391926201040994,0.7286236556406441,0.717237954278373,0.7167355564657109,0.6931807334872823,0.646425157825412,0.6048542421005517,0.6187170160928174,0.6637612880421578,0.7086249792675604,0.7496542188107794,0.7890215372338024,0.8300841115116894,0.8813266004187191,0.9449726577677254,0.9999999999999999,0.9742085747389707,0.9005416256812045,0.8280494069318282,0.7532507106488283,0.6760223227401522,0.603116026673124,0.529938653854427,0.4801812458658091,0.513793390692819,0.5892493395455395,0.666697183727221,0.7425890930629967,0.8125390500468158,0.8616569609845478,0.8573571043069604,0.8502815542516654,0.8459342287254749,0.8108861472308845,0.7935143065410785,0.8187386419740629,0.8235943300233145,0.8182935963408279,0.8203830733971805,0.8007301795149334,0.7547455946474259,0.7058302879065398,HB
0.004081423775697868,0.09437798331730063,0.18983375043059003,0.2862817410958065,0.37614655617724924,0.44724628986882053,0.5185466613718308,0.5632676537325989,0.5683837785497119,0.5153389943123339,0.5617424532307962,0.6556636188321125,0.7545759797989273,0.7927170297732906,0.759909637501097,0.7350652659765067,0.6960139037963766,0.6429903890606159,0.5796738476480123,0.5114500053991506,0.45998807267690434,0.4745367838954748,0.5409967159026796,0.6072376966616773,0.6521259795354613,0.6643335047261203,0.6662281224129551,0.6643005648243219,0.6418476164274984,0.6326932794391804,0.6666817106081784,0.706075013274609,0.7220988287590548,0.6681058353995244,0.5766645635344962,0.4793574116881356,0.3858631845231544,0.2851322617920726,0.18373424530242644,0.08826806815115162,0.002484104808446741,0.004089855197464187,0.09571915008604992,0.19316433705857916,0.28787357670386404,0.38914273464759264,0.4901753534785982,0.5841378008354785,0.6822652131348108,0.7683160906464457,0.7658430805197796,0.7304741599405662,0.7059689210548281,0.6711309086145323,0.6151339579546329,0.5505131958859049,0.49251777014660947,0.4871643993907686,0.5430730080427713,0.6185796024585675,0.6815895133131475,0.7180239131627135,0.7258285011863501,0.7293561796053951,0.7164247197193134,0.6860073437760312,0.6727931051130358,0.7007352786510441,0.7353786941681553,0.729686955890519,0.6586474630641477,0.5654340513636382,0.47188633483158315,0.3745590275638975,0.28027017002347643,0.17911583586931012,0.07788521032416695,0.0,0.02122953996900634,0.09000375767860058,0.17946030892717824,0.280567830496937,0.37971394859686014,0.4732297338920024,0.574000634379817,0.6740318686618443,0.7635498289756542,0.7863055136761057,0.7364262032449549,0.7134627357123557,0.6868373984592873,0.6329244636275215,0.5715344955161721,0.5072338592832162,0.4662028281984085,0.500230862132411,0.5681356108659603,0.6352341140119175,0.6805768732862247,0.7010719995706238,0.71086508005149,0.7034468243365086,0.6918045410689091,0.6869087469213044,0.7155164847063933,0.7596724771780297,0.7780539795432773,0.7366572973422616,0.6473515682086255,0.5518589133447265,0.45722465505358056,0.3588996447911956,0.26510489073689847,0.1661172474690098,0.07328350133911643,0.002289651016653682,0.049366653391566206,0.14311815418055307,0.2395989352339094,0.34108719377786234,0.442528208097545,0.5384598905439173,0.634643475517753,0.7359711098721431,0.8304909649938297,0.8664521630987567,0.8159551672494427,0.7812660119784667,0.7526990581492661,0.7138117810342077,0.6539556998982738,0.5866561149469276,0.5303547818881666,0.5331845743801276,0.5919792138831332,0.6597862082608676,0.7040825296160835,0.7166160375576571,0.7157809906781816,0.6959196930293832,0.6698539396352114,0.68110047842234,0.7097071681910541,0.7352692590689451,0.7487564007955405,0.7550145932295929,0.7420105234979493,0.7042010549752551,0.6423396714638689,0.5786289558888418,0.5752398967630465,0.6371831672342656,0.7009070092669254,0.7538025429076505,0.7883691196862002,0.8172696609991756,0.860642387739136,0.9393663160484185,0.9999999999999998,0.9653026035359444,0.8758779863336044,0.7823113990972534,0.6836011979920082,0.6204855489847512,0.6786819621924183,0.7694093056732827,0.832594610017664,0.8206675629718247,0.7934710575473931,0.7499678744707938,0.7209403458124983,0.7322396639858559,0.7419754316371849,0.7420856504830251,0.7299677025445297,0.710825003075005,0.6680353231184368,0.6043046431694612,0.5380501878546964,0.5108497663866833,0.5690838993186502,0.630240447000449,0.6891743891396303,0.7299760448248858,0.7510344753211291,0.7865594457400149,0.8585660875301528,0.9311721431950721,0.9089797717875985,0.8187466315369301,0.7255264435671975,0.6251610684277902,0.5302299840921993,0.48640362096568923,0.5591112038714374,0.6555997299387477,0.7518469062723669,0.7908453386914858,0.7769315945938986,0.7613591132250559,0.7231672807378293,0.7165271255878509,0.7484076735869942,0.7632987360664127,0.7636706208946842,0.758921605089949,0.7448344342895303,0.7009448517178061,0.6330162250931242,0.5623874360883598,0.5273764493740833,0.5785338787928789,0.6439265188027212,0.6984090202704802,0.7349133338779226,0.7575414102875266,0.7947429549218794,0.8683409812864273,0.923988352020811,0.8722341558710813,0.7814409203698991,0.6834730814133234,0.5884380486631622,0.4913405767050103,0.3926760550241588,0.3697186754751096,0.4586295024802298,0.5517281273221524,0.6470205392418593,0.7382980124214542,0.7762198284220727,0.7529522011936041,0.7271827613344286,0.6854966525559485,0.6680455818040583,0.6910878349750358,0.7008024505028552,0.697931874106513,0.6945049005567538,0.6743531244031664,0.6240939648521824,0.5532148295826429,0.5020513773280726,0.5372578275969169,0.6095215211666625,0.6714857566343997,0.722441085184002,0.7618535598176115,0.7870722398945937,0.8365869399626329,0.9129852591338137,0.9542935706961571,0.8897401896504891,0.798038572544769,0.7059143090982369,HB
0.6454453235811324,0.7002613070876869,0.7515286214459742,0.795435244562837,0.8332087184655415,0.8543999290608693,0.8742091790036641,0.8605765097794007,0.8616127196471699,0.9026862444909551,0.9132102077743776,0.8516675412507102,0.764247949269578,0.6794569004577391,0.5945996522280488,0.5061752077868944,0.4212913009156806,0.3365238776922432,0.24816195307841454,0.163730819645947,0.07903832832407015,0.01787739361940638,0.06096520695701019,0.14371549940695266,0.23206704765081693,0.32063785709112863,0.4059770154257783,0.4903094029975436,0.5787711526982171,0.6664784678534688,0.7493443543271716,0.8317775176431899,0.8970733255891286,0.9107477128638226,0.8742280871253769,0.8297033187002822,0.7762806454931439,0.7276588801500072,0.7312934854055311,0.7692935035143487,0.8018676148576589,0.8208312061164729,0.8468181330905038,0.8428381407619463,0.8435137882383814,0.8871107924396839,0.8997661243099726,0.8364565515916966,0.7508659714953092,0.6671374709445257,0.5788050509994631,0.49057855266601197,0.40713160966558654,0.3207162709243813,0.2323527220190797,0.148430485574285,0.06358750808188257,0.001749745021757676,0.035416267529659706,0.1200564182271146,0.20861173015464568,0.29409532359575224,0.3782964090065903,0.4667391527703026,0.5553807423318267,0.6440220708851521,0.7323035545337087,0.8138322965436171,0.879925352231764,0.9097892181249321,0.887660839089832,0.8394585054549615,0.7849933380972363,0.7518036511648309,0.7765100270410863,0.8150172689524522,0.8342982800731948,0.8520601292157819,0.8631793526049492,0.8396319969524644,0.8537081697964533,0.8877227166978587,0.8640678314046655,0.7816479728329804,0.6930704324847818,0.6071913913854439,0.5233344148170538,0.4349840198339832,0.34849826625649866,0.26510329022914375,0.1769570791301191,0.09148700632070522,0.015075331585120588,0.014117345362710143,0.0935232846374256,0.17643589741502158,0.26387937120881216,0.3524735097142398,0.43834062035459215,0.5222098524262695,0.6105158133572273,0.6959198268241182,0.7794790232748363,0.8530005252192627,0.8988009821842826,0.9177815661661868,0.9137584937906515,0.8664542501198627,0.82645733263214,0.8348327422828472,0.868863216147941,0.8924385450479948,0.914807042077397,0.9405561481116742,0.9314336378681227,0.8826050451404677,0.8674676160520616,0.9035509585399093,0.888406688201437,0.8125085428521082,0.725535119542488,0.6425751854552579,0.5548540008698031,0.4662826776457581,0.3808831260998277,0.2979799969623825,0.2205898160023238,0.1364406563420309,0.05445225032507178,0.0,0.04526038982245356,0.1284426555381764,0.2169028889674764,0.3055398511221867,0.39254121890943544,0.4699735449755888,0.5557605674562724,0.6430890916899539,0.7260283512783221,0.8101619593520133,0.876201056179857,0.9061108572452155,0.8823520370272597,0.8351510873564143,0.7829614504353288,0.7431099764916484,0.7595221321137162,0.7701331511251035,0.8033125631466271,0.8566109168969436,0.9014546674703006,0.9286394301432432,0.916906545311138,0.8618648109061946,0.7845207853924205,0.7020147856993306,0.6140676985803135,0.5293084495846909,0.5179129487249752,0.5982343214104462,0.6851442100583831,0.7682669031884808,0.8557032410578043,0.9380381598363594,0.9940782802894326,0.9616738512215295,0.9276868796176276,0.8988038324458594,0.9337252896271186,0.9672852340094247,0.9586084919932687,0.9298867731005054,0.9089700079274587,0.8845738422520093,0.8539743936229769,0.8749879626392774,0.9252962773675686,0.9548290726231714,0.9367833673251005,0.9075314534360914,0.8522747767120991,0.7793664810214627,0.6978189890921436,0.6100598718764316,0.5350209645362229,0.5565905577914874,0.6318503692482824,0.7149011183446818,0.8029632135280476,0.8870799064003607,0.9577130828657936,0.9453238189991904,0.9083398604777819,0.8727991368859476,0.8724434353662331,0.8893243026995072,0.8697872603564996,0.8520954925388144,0.8318344733466643,0.7929636491375684,0.7916189251395331,0.843413531956499,0.8931125311191044,0.9286370334929079,0.9353512394533585,0.897894364925043,0.8273799494130412,0.7465134444199197,0.6659221369373425,0.5932039537536982,0.5451028170507566,0.5950629933030964,0.6827461075497872,0.7693271840976257,0.8525291170266529,0.9355163718001853,0.9799812214649684,0.9416993774498914,0.9074233083015297,0.8666546604178127,0.8738957194756574,0.8721842282157033,0.8463252012761162,0.8274625010697292,0.7955714166155192,0.7574794502495721,0.766634881801106,0.8202986379601882,0.8697884125099613,0.9120765308114587,0.9473394752792517,0.9282390630730377,0.8709021907040913,0.7919835793731522,0.7092837360528712,0.6219482801674796,0.5345396222112424,0.49641709935189343,0.5668722929879493,0.655369326823735,0.7416982645029773,0.8251673774257415,0.9088285273089547,0.97670215394373,1.0,0.9536633255182205,0.918691080213174,0.8843319778465959,0.9002921579558512,0.8933195633102977,0.8745078847442491,0.8533184404869636,0.8155517705146038,0.7894145330793969,0.8205055657308145,HB
0.520579484460332,0.5219014147728487,0.5233403883313938,0.5125171996866347,0.5019102547649985,0.494687396917334,0.4267509000911409,0.3200894477644325,0.23423919401974835,0.1289064834988909,0.0470606072511397,0.08503638916831369,0.1953391283425967,0.3045062443757005,0.42386923331155346,0.535973807541863,0.648320585469274,0.7399524583341779,0.6829183726797545,0.5943532694402363,0.5371064503758953,0.5071286898257497,0.5048318409232944,0.4906212740881024,0.5085054746749567,0.5493736476228057,0.5787774629106934,0.5728836308112535,0.5856870615130498,0.5932438931981676,0.49706125683504787,0.38896939172801037,0.27253938060071903,0.16647256688450263,0.11396086744481959,0.18874290368135238,0.3007376445943737,0.40920565969723643,0.5238177945550144,0.623538893803516,0.6411335126943039,0.6179963788515632,0.6294900541509958,0.6548427234631404,0.63636468250081,0.611693170406757,0.6103118602672435,0.6222031100842829,0.6452145347130909,0.608500170823393,0.4956159863970728,0.38684780158308785,0.2704050109274103,0.15201222470462428,0.08979407045110666,0.14577865592205175,0.2363101239716916,0.3434420814914687,0.4615829384139607,0.5686665237202111,0.6337204792886184,0.6441404510661153,0.6357361169825406,0.6228056253199923,0.6416175918322038,0.6581109863671273,0.6368236057383143,0.6115303937471377,0.6010644451560281,0.6108938816324381,0.5955296851706033,0.547474933862429,0.44864800703455376,0.3310075858056005,0.22100869084943398,0.11168163119127339,0.06550715345724223,0.146063789391909,0.25371793366337325,0.3694983474498654,0.4803375677906905,0.5939179222435307,0.6843326720790341,0.6515538093005575,0.617161288637238,0.6013878423399039,0.5912609457981475,0.562196680019003,0.5426157237584319,0.5663158770587238,0.5937688492619233,0.5998516925479147,0.604253267236575,0.6140930666281603,0.5522085027581123,0.4340130246516902,0.31369939866040264,0.19400173992709835,0.08504920260975846,0.0,0.031182649026205933,0.1352665307872445,0.24457999939409758,0.3596160525826555,0.4752363085167004,0.5785561938623123,0.6178536133509995,0.6201392265649028,0.6195487393376964,0.611843223826618,0.618869544464149,0.642702663498961,0.6434148348636097,0.6251546514618309,0.6172432538883839,0.6326246430924876,0.6422133895562743,0.6253062083982552,0.5907729162461899,0.4851627422420881,0.3729026559186388,0.25835652385688235,0.15415285946743396,0.11351664095106528,0.18822593931652865,0.3052331814156468,0.42550318191033165,0.541133183587938,0.6484283793035912,0.700814370785424,0.6689191797573479,0.6486985236463054,0.6389538515566606,0.6120104171228258,0.56323902579186,0.5423780609758135,0.5792424614546539,0.6339701878333774,0.6206608105508571,0.6044975054531352,0.6449908789356211,0.6819199086430761,0.6953595862145256,0.7121492511298024,0.7481983070790723,0.8156906952106984,0.8478354320247048,0.770963353582403,0.6603508319991684,0.5611402188848271,0.5729711854555464,0.6780758806411646,0.7629160239263846,0.7461679220644455,0.6925651577917189,0.681661264976098,0.6620549128361768,0.6711336400518295,0.6875609294890688,0.6869937288789498,0.6695353689860508,0.6598844860209789,0.6709292759263876,0.6695332782488626,0.6737608747700867,0.7323524257958614,0.699944480032404,0.5982818258494031,0.5047078931526334,0.529874207090701,0.6415522403946734,0.7406835394022981,0.7587346358926008,0.6821918658722694,0.651788546647798,0.654492728002432,0.6519126041000227,0.6256598766447166,0.5965900477579251,0.6155413650934087,0.6395419459646638,0.6536291653309219,0.6691501127564345,0.7324175847731698,0.8205819781423576,0.8488655287904541,0.7680780380218359,0.6605239971279886,0.5496991762123029,0.5540229656476412,0.6535289359027483,0.7199788957620146,0.6800574725201245,0.6539224151929299,0.6502608345117995,0.6473294860951175,0.6696379926436231,0.696022243924471,0.7014165825442875,0.6810007807523557,0.6787719149647455,0.6881716175263306,0.7005368281580098,0.6999299457328685,0.6153842564756036,0.5566140547705594,0.6368764571553078,0.7451169951444796,0.8199654594726562,0.7843951010251224,0.7078717976107942,0.6664730157473215,0.6560182988676813,0.6671685877169802,0.6940065750085762,0.6973203994193669,0.6678122726738334,0.6689099939116261,0.7194090758559883,0.756376073971047,0.6935700798357729,0.5912163518686508,0.5764773394671256,0.6839536224287381,0.7843243195020122,0.8131120640990286,0.7344373755576061,0.6459419524976133,0.6320759553232369,0.6247952060929092,0.6004188900035179,0.5630132865119544,0.5531455705429971,0.5631126521468737,0.5665013520176458,0.6140064872044144,0.7030304203598234,0.8077434508525321,0.9108425463518248,1.0,0.9850774590790761,0.8794994249021424,0.7713494598003647,0.6532757512817136,0.5443421290701211,0.4518653614604431,0.49762612730847344,0.596083323598696,0.6128558719074233,0.5632377879226915,0.5560848456349716,0.5711294430557943,0.5834510356176041,0.5898028971196321,0.5996902204776329,HB
0.5625320474630505,0.6292508578048653,0.6864201303995673,0.7026695096519945,0.6386344984525739,0.5732675693035828,0.5555043494785462,0.5978507903804556,0.6564995363872398,0.7286302777781642,0.7763025182154307,0.7401114001941894,0.6917880456826572,0.6379966314131512,0.6587259040616246,0.622472286198651,0.5206523043551899,0.4175836906071094,0.3135236198670762,0.20866793651915827,0.10653736427432581,0.009758381872983946,0.0,0.09405357437512907,0.19577587656606343,0.30385791751366653,0.40790787763021885,0.5111050086714343,0.6167173207554263,0.7174844976043796,0.8066668048051345,0.8186408270478075,0.7967754792363059,0.7517596235965313,0.7144493150445884,0.739514560651715,0.8091355065457019,0.8686015040419853,0.8844903711218367,0.8684301415869217,0.8458625010173443,0.87142592059497,0.9116298457534516,0.8814647002411714,0.7853785652044388,0.6847671266898067,0.5833987546479537,0.47905692187307614,0.37774612003448793,0.27208435724997926,0.18021116568483897,0.18730018445836338,0.28325059977747247,0.3864642087281417,0.4912491687968005,0.5936443158522832,0.7012673308017058,0.8012828667582873,0.8910445792892409,0.9486799290131077,0.9356346220459179,0.902957786469054,0.8491831565508053,0.7971752676721332,0.8026807981751939,0.8353610935511534,0.8327588814276564,0.8145444815989259,0.8103097764301844,0.8399475491608989,0.8495676460766174,0.7679267160052549,0.6684028916734853,0.5665813425149065,0.4627685404608529,0.35853337062645785,0.2555952888403402,0.1483197367127317,0.0881468693451758,0.1543927664749617,0.25570692220283797,0.3620775691412633,0.4632909526286414,0.5707891133557684,0.6736350036755613,0.7771234853635439,0.861704483476149,0.867296976279229,0.840912552492539,0.7992850356495392,0.7669617801489069,0.7775571333165209,0.818698135657682,0.8255242101567243,0.8241050849135504,0.8120615031809356,0.8214455024936319,0.8573852499773212,0.8444197186679484,0.7484803515352735,0.6448082919807788,0.5421012041000862,0.44088894016291846,0.3355484324682013,0.23443989933001552,0.13307458796977334,0.09059039386198287,0.16664528968181191,0.26852406408285046,0.37308144243857344,0.47656585272225793,0.5802784705847169,0.6888587405461125,0.7961347241805646,0.8747246402069787,0.8688203058662792,0.8396523131017682,0.7921200342935589,0.7680025414053632,0.7948107492797271,0.8406535285429401,0.8581985486092117,0.864183325910537,0.8488271378694859,0.8599199003120167,0.8767539238774026,0.8094774874262568,0.7085016723582868,0.607416547016654,0.5020518538248763,0.40095737368655493,0.2973869723233037,0.19539255809808587,0.10097660784123275,0.11609977936764493,0.21578974528528472,0.3168422167631758,0.4239054229151865,0.5267766492592721,0.6308472334489293,0.733062269130719,0.8332368287545172,0.8847040167795849,0.8646002265682909,0.8211972176331469,0.7724498539545875,0.7652214782370049,0.7916385490982342,0.8132502180653275,0.8667168932982309,0.8978109716960506,0.9250130088613716,0.9330039230169663,0.8614292123545334,0.7614785625495942,0.6569785513810044,0.5525709940934777,0.45227853380490235,0.4200635146284223,0.5050623682414118,0.593356379899134,0.6995386021495195,0.8046804716277453,0.897532665333089,0.9439569629260068,0.9182791557534354,0.8871455457897587,0.8899184048071324,0.9015931469938848,0.8908654049343566,0.8753563797377123,0.8330965150750421,0.8117121281069585,0.8482040999221637,0.8902787146041599,0.9085113685185141,0.917807098324196,0.8639100909447425,0.7718972890256487,0.687346801956049,0.5975627678516847,0.5329563789406634,0.5971032464414866,0.6990746902188804,0.8010752255612094,0.8905838046895159,0.9126819714918647,0.8760447371918517,0.8535537361528823,0.8627235114294479,0.8673862768607926,0.8670557634697517,0.8412919926745362,0.8137845111810181,0.8436688276654069,0.8839522208154603,0.9087563604878851,0.914241232894692,0.8436876431159478,0.7430005753436421,0.6413872507539621,0.5437826014143295,0.469293293589122,0.5059964311731596,0.6063665812363715,0.7109640114496613,0.8171666715351261,0.8993681496435543,0.9099221803428011,0.8685166819411886,0.8489827287854258,0.8626681595226299,0.8752108392986823,0.8718750883944998,0.841143164100343,0.8627450709562862,0.9184956557555181,0.9600950702705618,0.9863033938130502,1.0,0.933514879303596,0.8328611031700729,0.7299124652790577,0.6242189561564798,0.5421759852170275,0.5845955863684981,0.6913094215361731,0.7940389426844271,0.894505069705073,0.9644656601130958,0.9501367301557385,0.9094526930550889,0.9021551598957073,0.9170261973424553,0.9204227930717782,0.8858513797662709,0.8174321190551502,0.7646882076517162,0.7878361592668507,0.8319244858655429,0.8557029282226601,0.8758689258316928,0.8270043663979857,0.7281675867696454,0.6197963341143501,0.5138060466178632,0.4640157420701013,0.5384601207375538,0.6402886730278877,0.739874403585053,0.8218959961416811,0.8228489334063444,0.7805450056535942,0.7569610806895585,0.7554441638820569,HB
0.6601504594806704,0.6590917053836303,0.6617557222042332,0.6710955969788635,0.6577759609174358,0.6285298424039667,0.6449078407306217,0.6769926633929482,0.6769562249441112,0.6378669546911591,0.5613766114265637,0.48904510027239745,0.4118913163460962,0.3346149638508813,0.2623446775294114,0.1842271672634379,0.11056339873916765,0.042447452857596324,0.037516158928636134,0.09481456827263379,0.1651708258373108,0.23780118610151457,0.31633224613495137,0.3909599881884449,0.46524023362210265,0.539920228653531,0.6048604383506779,0.6204344351026607,0.60604470868733,0.6012666990762212,0.6096503806525506,0.597997576740779,0.5874422987231942,0.5923297370584784,0.5954456753645316,0.5991322053962367,0.5819722835976,0.5915271500068187,0.631114909047022,0.6728994590836423,0.7113561551050935,0.7270913113184401,0.6663663449073209,0.5882427320252523,0.5159730044673652,0.43868612701442733,0.35958637474090827,0.280654439023164,0.20681199426598518,0.13835131709270965,0.1316079380992058,0.20015018485712077,0.2775119245935005,0.3497122848232377,0.4279025965356551,0.5036646625183994,0.5766969095090027,0.6492982147832842,0.7131878513594532,0.7518532008608929,0.782116840355745,0.8203249578713234,0.8545446502193812,0.8789187684593947,0.8901414310629503,0.8768986966754417,0.87341092560973,0.8948200593701146,0.883468977446815,0.8637038836094184,0.8567964479678132,0.874741056964345,0.9083556875493337,0.9275436079173944,0.8971262108736746,0.82551780324343,0.7466362815872005,0.6706118341621095,0.5975041197894659,0.5188081195220269,0.44381633654316976,0.36980347342525555,0.2923069294031222,0.22108927877425577,0.18081081679333866,0.2339697124600133,0.3125745412999963,0.39007989365862095,0.4622586104700175,0.5404524901384138,0.6184674165642645,0.6905853974225826,0.7667958291302774,0.8360220412740265,0.883899803334903,0.8783966765477553,0.854738812050341,0.8444218684773892,0.8607620770693774,0.8674154701035701,0.8301261538639015,0.8114270092034694,0.8155663829650923,0.7959051214738246,0.756841665348341,0.7175409362890706,0.6816635837127742,0.6944364650728447,0.7268652159356814,0.7281599408026793,0.6772431391067237,0.6051984604227014,0.5266704138778737,0.4530119684195473,0.39855223166241527,0.33835943298492577,0.27420761411649086,0.2020924081502733,0.12750226387261898,0.05063770270725465,0.0,0.03588937837157635,0.10758898884258628,0.1862710236498033,0.2633319787374655,0.33571617842794454,0.4141549524710544,0.49326176210452166,0.5716707561079375,0.6407074174509761,0.6912636362095443,0.693032566125126,0.6749093555134591,0.6779025019229572,0.6818888762869246,0.6587953568883917,0.6495533345621247,0.6538465818521451,0.6518357108948354,0.6371225098772784,0.6132230596030475,0.5975991787649189,0.6309381836614045,0.6687957837875527,0.6833971410620963,0.7226492118875214,0.7568418308114588,0.71941609137696,0.6998611023293484,0.6763853487307614,0.6402497014965709,0.6514045827024184,0.6724091626059165,0.6843695306244031,0.6867638779875094,0.6843029187358891,0.7092705042552441,0.7194132985048496,0.7114607152611616,0.7170803919625954,0.7351335266899226,0.7257212957689518,0.6772147429995359,0.6118275377388251,0.5394192462414511,0.49429280247471996,0.5445296397436026,0.6229820761972771,0.696657782216672,0.7708144500043659,0.8241534660937155,0.7985198950174455,0.7655560105751573,0.7452666982621794,0.7183831547651556,0.7483919337395659,0.787592625170884,0.8225812060203019,0.8502514267578998,0.8456859122771752,0.8592636595953556,0.8970967062380808,0.9069732197824956,0.879909171933599,0.8846378314536927,0.9090447050575463,0.9204891832286304,0.9037575084684069,0.8472782899647753,0.7770162646010148,0.7166285920665074,0.7506350966281434,0.8174470256912072,0.8837218785532126,0.954174684687316,1.0,0.9776857790554228,0.9487795755693931,0.9180671305333326,0.8973358827540754,0.8992867982554742,0.916960676188562,0.9293195309533528,0.9181297073132744,0.9088002020700292,0.9302087599964679,0.9190970957897755,0.8934535336892084,0.8637589178502936,0.8232353602283027,0.7904754136667076,0.7603301686679211,0.7114224833322196,0.6434306299566626,0.569782546185561,0.5165589769900878,0.5580422668734877,0.6310194842538595,0.7060941510211756,0.7773427693252823,0.8083492007931279,0.7698073002850809,0.7301941001021437,0.6920661989839276,0.6483674187451169,0.6163084096621978,0.6311267928198208,0.6321786731767576,0.6274753102624178,0.6208349516066873,0.6230742782074823,0.6372052560133177,0.6352631805393023,0.6397659877726196,0.6522343096531289,0.6491419959862499,0.6076567585026509,0.5417151806588436,0.46866051254971475,0.4136417631410365,0.452896427995769,0.5300525862053387,0.6004814453391722,0.6602905409794304,0.7176022863405567,0.7673484974723872,0.7422666489804324,0.7149149333936244,0.6947136046787286,0.6658594246772986,0.6876272689671501,0.7054407534788552,0.6941876934747948,0.689311082442901,0.695177082281005,HB
0.46864269026801586,0.47404444760611497,0.46496870276927393,0.4254157909975742,0.3950590516521002,0.39875160322115266,0.43029304219391795,0.4556806711353434,0.44093148799167414,0.3807355635072611,0.3099670504914662,0.24046303101038102,0.16789672420340085,0.09836599439746352,0.0729623423771184,0.12706608326328328,0.2022214641766642,0.27575714001826546,0.35127785020129254,0.42475706827118564,0.5005815002992096,0.5762827106580095,0.6499069851637553,0.728532993867258,0.8049191902061188,0.8717760071353151,0.8645218821671963,0.7954356172594796,0.7177149091053625,0.6405573315396449,0.5697777634578474,0.5046461707740963,0.4554393153972778,0.4363741936638199,0.44405772083575124,0.4689464442816236,0.504289293238557,0.5313091353166417,0.5029459535041019,0.4547418910469989,0.41304641884498405,0.37594482714042443,0.36480336589622353,0.35981077543839346,0.3725655363299538,0.3967888823068648,0.4063896638083073,0.3895784318486064,0.3885613993160648,0.404242901264134,0.42979679717851704,0.4239005459032752,0.3670291879458212,0.29596612187673776,0.21963518637260315,0.14683877896786646,0.08968425880914022,0.10725027011563837,0.17483100144256447,0.24621625426810922,0.3174665134661536,0.3927945200690037,0.4652609945144366,0.5429474853593093,0.6218183909543493,0.6924306435517302,0.6810939115024597,0.6091811856077343,0.5379698169355205,0.47048913806441606,0.4121012246620186,0.37609665038185636,0.3695203409469461,0.38164487948734216,0.4126567472100293,0.4451152037749564,0.4434205197400154,0.40277542737721395,0.3659044337032977,0.3501414844348081,0.343887982924304,0.34927481974656227,0.34137449809551246,0.31495030716748085,0.27652287445197477,0.2671964884106599,0.28827311001981615,0.3164554143773446,0.3171549012376764,0.26747679774396915,0.1979121105446735,0.12790274789128553,0.05671489244190342,0.0,0.02098774808095305,0.09083098887699514,0.16339891664689943,0.24165478236075244,0.320494081953,0.3959446428486084,0.46983016894005236,0.5483981534790274,0.6229530542763195,0.6974863656845758,0.7542257566395265,0.7140003556737871,0.6411843213456361,0.5692897508652748,0.49918607397876835,0.4354536850760147,0.3973997403198186,0.39176429234491694,0.40425342347900783,0.4329196497115171,0.46649825931685807,0.4926274630286953,0.471553795336489,0.43451905200828467,0.4140912619673687,0.41337441961222754,0.41370274882543123,0.41554056617520674,0.41138197793511155,0.384527402471317,0.3507111268176677,0.3555539749486005,0.3837706869355768,0.4240483278829694,0.4536443101190273,0.4776834554504372,0.4609141200589937,0.43121984253124923,0.4065795088737105,0.39951462971397933,0.42521491962116564,0.4466362268074686,0.4507350237105183,0.44839316364564974,0.4485815184530111,0.44937920304389767,0.46652957706422526,0.5041883282362942,0.5252301137644013,0.5056439736367633,0.4703648282078765,0.4405676555875637,0.4196974240175435,0.4334131417552871,0.4942220919047542,0.563697802237749,0.6361281877798872,0.7083831398633704,0.7817872127162642,0.8432366955020048,0.862344166622665,0.8006043593381771,0.722035992717158,0.6477715745351897,0.5727322437155651,0.4942050364611026,0.4207416064918681,0.34531663967953863,0.272483942945839,0.1978094928199372,0.1725348142490597,0.2315100582561378,0.30036402230296155,0.3473962167048925,0.34741874985928334,0.3312682916197063,0.30547405985409637,0.3119968007447076,0.34594874066778414,0.3681406948348913,0.37173101509523043,0.3669578369961146,0.3745739416747764,0.39508539714188995,0.4375420912514467,0.47573609527979177,0.4743986113671874,0.4430068882008438,0.40997005410251064,0.39248880671138875,0.404103163320495,0.45249527463795447,0.5173147813062244,0.5882873817830658,0.6604185323440628,0.7335022709933361,0.7898889553234745,0.77699455528354,0.710114377608533,0.6375679886958854,0.5596509365387132,0.48647513233787043,0.4102352917244161,0.33499905768225324,0.2629774934329223,0.22283161966439513,0.26420765258020107,0.3306277052104205,0.39979785233403864,0.45442979463655697,0.4599811273961327,0.4474877121335843,0.4215518774886009,0.4298636218352079,0.43710962925525876,0.42263079272801507,0.3992531673899038,0.38976986982586825,0.3960877522835218,0.420104573452067,0.4605749284390446,0.5074255709025857,0.5501457708782904,0.5643711313573474,0.5321508952201925,0.4980558440195182,0.4709541304965572,0.47283734221191676,0.5087137966255981,0.5719705132213437,0.642841738883767,0.71471206535399,0.7877987713226371,0.8626478504985451,0.9283604248314405,0.9849904950371695,0.9999999999999998,0.9379395148078442,0.865312415452465,0.8014345876651812,0.7481201531066186,0.6954612707559835,0.6385758151234902,0.5686234197709521,0.4909597119866629,0.41820354859627895,0.3427282213155345,0.2706425114342026,0.22464715873287733,0.2788240363537078,0.3510912957436909,0.42105147973528,0.4742017678781647,0.4907343304975855,0.48286012628115027,0.44658989528965076,0.43288471196671985,0.46085730110879974,0.4928779027854402,0.505325649561525,0.5004626363126181,HB
0.5903998682186691,0.6533168080045537,0.7001909553217394,0.7010906508299413,0.632326393238599,0.587591403841176,0.6040725702090608,0.656805350148097,0.721501109840522,0.7525856911543269,0.7347123199736127,0.7472703722302458,0.7555814108205479,0.7741740635453893,0.8099930984643271,0.8392018115388618,0.8325744596305273,0.7547481550068205,0.6611108852941638,0.5661694634971755,0.4682562905878844,0.37231631535066056,0.2765465039953344,0.1835461771792084,0.08992659202724329,0.005813010287942899,0.01993409727058959,0.11506796091459104,0.21316621390603963,0.3103690436290456,0.41209465295931014,0.5092656219521605,0.6074250434324695,0.7086330985669,0.8025807283765873,0.8466920516351923,0.8108297357134617,0.8054843438139425,0.8150278441393735,0.8396760335797946,0.8613884687793754,0.9053055977121676,0.9007032452472308,0.8817345831054499,0.8930508801232515,0.8871948304389934,0.9024819940803164,0.9318015826505459,0.9337894699904192,0.8626192878531103,0.7694322286457622,0.6748278196215638,0.5789155125166765,0.4832427687883545,0.3881619198897588,0.29316773535429763,0.1969619046150788,0.1013096451026616,0.03294143914689707,0.08157334701135,0.17975025227493835,0.2755414596336919,0.3767020541368189,0.4732116437756615,0.5721163330482577,0.6729884387198761,0.7684566938860133,0.8665923157117226,0.9081692018336003,0.8810743943782733,0.8625174811751366,0.8477864504348938,0.840100434142357,0.8661087148207578,0.885680727108968,0.8481716050814168,0.8479186209936351,0.8379652671028308,0.8335591989245572,0.8591293590297482,0.8857490400160182,0.9001555883272081,0.8595175063946396,0.7689438230801555,0.6729402055306668,0.5763649558027379,0.4812930772690267,0.3865116077770614,0.29662251227330216,0.20750365009376126,0.11154109960020142,0.04673443045655268,0.08479483727276627,0.1542007386700398,0.22650392242311057,0.31659334353061563,0.41787263799760654,0.5183097412599817,0.613849209411327,0.7147282832223398,0.8088140673360524,0.8416711153096079,0.8020646355775984,0.7815317863711682,0.7573065782771466,0.7435240274457202,0.7611828222013315,0.7903391240871369,0.76199784731668,0.7502199101245464,0.7457335437227945,0.7495682757986231,0.7646902417188812,0.8068636002239606,0.8267522727206833,0.7791066659176462,0.6875384467331522,0.5906063781534954,0.4957738650190677,0.40077799557541116,0.3000254773206661,0.20162039086815453,0.10668850903448002,0.017933134179375032,0.0,0.08539739727721285,0.182249882964846,0.280590962555765,0.3825802000799807,0.4818474856538344,0.5780712735055418,0.6794384126986024,0.7755702183296302,0.8457083628772255,0.8200599267376265,0.8068576577339917,0.8230383224972442,0.8417650775533931,0.8514743113438532,0.9131607219008806,0.9850252393455035,0.984525326354128,0.8984675199323577,0.8050041065518942,0.7348249280566803,0.6642350514912196,0.5765627923477783,0.47961181029248845,0.3778506921212068,0.29157670215959164,0.3157918300458882,0.4074892163359711,0.5014025998018554,0.5876145621401319,0.6778039480639411,0.7772232711503961,0.854682094701267,0.8618620198387121,0.8387462972528039,0.8032921708841461,0.7910195521192649,0.7981648303139399,0.796202347019686,0.8017169990135362,0.8280229880112135,0.7996005709381313,0.7953177562661382,0.8108780529006858,0.8342849155605863,0.8516862551248232,0.913094108566485,0.9686236948869265,0.9165573936869815,0.8216294504883388,0.7236603904960306,0.6253856650695953,0.5284057947866578,0.4269276653582257,0.3355212097227904,0.32768535470902016,0.4143276786168515,0.5091845191898228,0.6084487307853585,0.7102991302592079,0.8052064240304175,0.8834986938647973,0.9336611255702112,0.9371774158283812,0.9207408827492436,0.8855959866624343,0.8715484662512258,0.8781821880824596,0.883773538849318,0.9223974641332333,0.9239129066918887,0.8838150379562402,0.8816796424523183,0.8924738890181447,0.9118247495675482,0.9376965613528423,0.9919857703144268,0.9753453441206925,0.8839407459722677,0.7878968452343411,0.6886685923358322,0.5870823164482872,0.49359371201501,0.46636578453627897,0.5473329522247066,0.6420370647272506,0.7364319731185818,0.8319524409572714,0.9221777555491364,0.9839244036783814,0.9892918341937293,0.9609158738837045,0.9296963722503739,0.9251674355209163,0.9343374497040546,0.9226683884613629,0.9441535263101513,0.943297775670537,0.8957293181668364,0.86853518925378,0.8540130120718172,0.8502932193033146,0.871780541994176,0.9429785599416214,1.0,0.9514236479936187,0.8554105786073851,0.758530845974354,0.6568160650568979,0.5593126208208112,0.46149550050476495,0.35958449496804934,0.2734712153192371,0.3049733046882288,0.39846155883638534,0.4949876190888114,0.5916970095723759,0.6863714342910907,0.7730136342965412,0.8499056584721296,0.901198979319908,0.8896247085384887,0.8536670178816983,0.8118149788818316,0.7898531244818925,0.7844666227602708,0.78831982433392,0.806344034721374,0.7741594377284267,0.7673314503464292,0.758340427819802,HB
0.7753917733235974,0.769989284894213,0.7928844112815158,0.8124735140298484,0.7664520008690473,0.6883241795849685,0.60916282782029,0.5259457690354615,0.44623392208312707,0.36448353144296464,0.28065089636137885,0.20038684934112105,0.1193219059704762,0.03905930389022233,0.0,0.05947341092403374,0.14179333122863125,0.220941447577075,0.30433851897515307,0.38833607045968954,0.47031256086467177,0.5498571597285001,0.6335350916148722,0.717092581445315,0.7963929914726563,0.8766199749199849,0.916883005889335,0.8707846409161625,0.827550716224244,0.7994182500284438,0.7586571481683627,0.7213397398882856,0.7224359006581683,0.7591226755911306,0.7833653719724484,0.7832053666468445,0.7900605529223984,0.8174979207173189,0.8273038845915438,0.7757839115274864,0.6966133415257479,0.616754746701041,0.5353528794876344,0.45190794920705557,0.3726745090181073,0.29022344667359967,0.2076794051059776,0.1284991661251279,0.047160661469609844,0.005198011386716883,0.057819745090617714,0.14034322517797881,0.22305372496974196,0.3021739441332929,0.38552323530551935,0.46954461610597187,0.5535676362521631,0.6375906424612431,0.7214240263532,0.801510987140044,0.8813004953336866,0.9172895514022216,0.8669834683446956,0.823789244709965,0.7913246495265632,0.7496569184920155,0.710379771899139,0.708994849291137,0.740889213796225,0.7699712243014957,0.7724040918025522,0.7669415915592271,0.7849305056342463,0.8142511025536129,0.8061282615792932,0.7395369444228447,0.6607549952275346,0.5795617768278328,0.4976177236234346,0.424847997160981,0.3564170577802296,0.27787959092691816,0.1939555982905703,0.10999070088830293,0.03064430348924624,0.00020422131836289603,0.062135438537576526,0.14418373494184655,0.22338460505656665,0.3068524381153672,0.3907445418344426,0.4678012471205504,0.5392097844484021,0.6222633954123514,0.7061126698058177,0.786289025437129,0.8667684371038541,0.9279336153821048,0.8960223353025493,0.8426005199304457,0.8100484798105881,0.7732985608896067,0.7334666963332631,0.7233098138424928,0.7516662000690865,0.779535478483902,0.7827036329532097,0.7820916757309521,0.7915224310200065,0.818780302002413,0.7983150685324517,0.7258721440198262,0.6446965726814152,0.5649439571634444,0.4833141954757084,0.4011637081437436,0.32176452421827106,0.2383239023126308,0.1581194560279292,0.07731278217399984,0.02002443342085719,0.06402837741494921,0.14309500785092877,0.22686436402725285,0.3090164377106879,0.3884345789318411,0.4720547006516257,0.5550398258556656,0.6340922083336439,0.7172023126672485,0.79887868056198,0.8775132500195723,0.917370685281571,0.8674678342639858,0.8256714382970013,0.7972607727429833,0.7570173582466159,0.7256587719966251,0.7346039449156355,0.7693480176029123,0.7910921888733579,0.795684133132221,0.8079943609075401,0.8155225641771168,0.8097652981511799,0.7802960608933979,0.7509026736219863,0.7657668583945839,0.8067782416067905,0.8384550766839393,0.8726048753397652,0.9332621745448696,0.9907195868478899,0.9648189228633345,0.8885156239209203,0.8089702053112061,0.7253225933365272,0.6441256635702081,0.5639404241644108,0.4801534981267296,0.40925078218383315,0.43256370151404855,0.5119393516185681,0.5959035595304562,0.6798627673880108,0.7608188570710909,0.8315886968324101,0.8534221709943944,0.8383918629870087,0.8096553168420594,0.8032476040113653,0.8058743074964939,0.7980490567399227,0.765879495602433,0.7441011632381714,0.7682184963811761,0.8088795401838148,0.8419706520880689,0.8847852335558991,0.9496472305472238,0.9986263390722528,0.961486421473477,0.8841989393680089,0.8038462209277634,0.7232826535259324,0.6397684232569897,0.5604515138234064,0.4961347946928141,0.5298810611042617,0.6090143179213491,0.6897040626499779,0.7699739705309409,0.8378215605257328,0.8430535312085773,0.8172726767784345,0.7924888488544432,0.7940706393196834,0.7933808194198587,0.762862917720805,0.7318249889477607,0.7445641449117891,0.7881641873173056,0.8259994517695203,0.8596455047404955,0.9176223357341583,0.9848039069124482,1.0,0.9338559665517759,0.8530466311464414,0.7733868918537249,0.6896984218196015,0.6081293863885474,0.5282667841925464,0.44486567338515093,0.3904435670031692,0.44212127270725177,0.5207486948224753,0.6037798396152174,0.6840414694832878,0.7634104315038984,0.8358278495069565,0.8592552828116428,0.8413263950151558,0.8130089893201943,0.8043965192878425,0.8068257791934804,0.7945579282821643,0.758423954710488,0.742917194980726,0.7770662767495861,0.8182186336802241,0.8464714911549512,0.8923088013166228,0.9594753098656993,0.999704647736453,0.9539255950898248,0.8761058361238364,0.79249748335261,0.7084750864728905,0.6247411158868162,0.5450476748707641,0.4632691762228025,0.3795628997130973,0.3217759031779519,0.37068097220297014,0.45402198236610514,0.5346126318501808,0.615179460846404,0.6950665357048241,0.7738533736884498,0.8372167846537247,0.8413918730243927,0.8195294740703659,0.7931391313860604,0.7952929492915296,HB
0.6673022097679566,0.6772619948304381,0.6435824389114622,0.5547067277198803,0.4504957049944762,0.3571612322889377,0.2546165281477679,0.15494537325942415,0.1188013667962422,0.19514371092025806,0.28980164114067164,0.3581634072141877,0.444066597971124,0.5297437019604216,0.6193660318374246,0.7256155522926888,0.7767106621941555,0.719830025404014,0.6869557255036587,0.6934269809106985,0.7024432395903837,0.7058665462590095,0.6804903859266869,0.6752729561899589,0.7101360019855916,0.7240231646634432,0.6947390937978017,0.6973914362842395,0.7321409225769457,0.7473325114769174,0.7278915593045445,0.6641054041923486,0.5633850388978878,0.46394598990813574,0.3581963452846595,0.25879119573089127,0.15232735961728183,0.07959652234479075,0.12436079162304248,0.22600492588628285,0.3260926762985119,0.4347603030193552,0.5378880618101678,0.6401105467908237,0.7447539270276007,0.7895247533912966,0.7407314846537187,0.7088001781422144,0.69955307767902,0.6984507052547357,0.6972802525981892,0.6617874029429611,0.646360431910904,0.6710172683457905,0.683490693410298,0.6511200520572036,0.6525713548976042,0.6863464676154019,0.70482214547037,0.6912873438178111,0.6429728039778309,0.569987889656872,0.47814712988700636,0.37462407408496734,0.2652889056976597,0.15589754232331798,0.05278596427087123,0.006655839610527625,0.07371440590159106,0.17270152637315594,0.27753440484948255,0.3868788190884498,0.4921130330819987,0.592510518237904,0.6999247346995019,0.7644775455662023,0.7220341929078207,0.6982282478092925,0.6897819462710202,0.6900603819949414,0.6765932064934721,0.637753058522768,0.6363530196364255,0.6650029610011976,0.6639310205927957,0.6332579318559239,0.6484220858825704,0.6804274045459957,0.6928784709182634,0.6720488154591546,0.592046648386614,0.4900830942169283,0.3902415695521926,0.28478123164998004,0.18442952221181752,0.11740238268473124,0.16564405069346266,0.26050896355247644,0.34870006202266257,0.44194706787929805,0.5474405936181395,0.6568435540372382,0.764610139997425,0.8097930679691636,0.7481571596042835,0.7006795494804225,0.6999976949661701,0.7053726237295512,0.7054632779203631,0.6849342376877692,0.6702749846903009,0.6853658728114489,0.679653548199501,0.6604071059828112,0.6885131511524882,0.7257030699914964,0.7374436884519437,0.715762112721738,0.6470353706308098,0.5484229984509854,0.4412558439530119,0.3420608464397328,0.23460594883767927,0.1299380664994112,0.033264865702572255,0.0,0.07987645897648421,0.18487151974403537,0.2846316767461865,0.3664649838367582,0.4717941279046074,0.5781037070679629,0.6776780013118233,0.7705142308732582,0.7609108635035784,0.7258384611843671,0.7171974751340309,0.7208702789012711,0.7279152444295596,0.7070015013864523,0.6754235510947248,0.6871889680040852,0.7194443016008591,0.724291630193604,0.759512761941568,0.7778497501881203,0.7706247501534129,0.7722539919226783,0.7724739894800283,0.8140071478421227,0.8841861278503149,0.8989717629473555,0.8183683767005956,0.7168079000314842,0.6160807483123492,0.5121421779424495,0.5050552876346766,0.6052884978652178,0.6986200873848318,0.7577488405316921,0.7768865163583794,0.7748839869661768,0.757266585031902,0.7208584340430266,0.7195365915762233,0.7365266016655663,0.7220188345767347,0.71624072799667,0.7455496140558417,0.7581910440085116,0.7529516287261471,0.751295485456537,0.7793384193052333,0.8532890676694898,0.94435803753584,1.0,0.9407574170006705,0.8439846243551847,0.7404827076838578,0.6318482679780226,0.5641058711567424,0.6257845202904604,0.7021820810734827,0.737566632476311,0.7363197014997467,0.7153450848114788,0.6860318947146036,0.6966716614350439,0.718274933055882,0.6999460572889831,0.6808648856626176,0.7103078229732747,0.7308517462231383,0.7346859798317618,0.7387176029889182,0.7536555566406928,0.8155473669108608,0.8919671344355842,0.885176859673634,0.7967560031219483,0.6962626044660198,0.5933732021990505,0.4912631496462563,0.3872254669293209,0.38111144117039064,0.4826357220062012,0.5828628509439913,0.6789071356020857,0.7363206541089826,0.7584211632669029,0.7505718257274436,0.7223644705642291,0.6959155442556741,0.7181397035529891,0.7318003282478274,0.7059221100525881,0.7040151540675903,0.7427525461903142,0.7471125160832388,0.7472131785268652,0.7578348842580991,0.8010721459638037,0.8785789649222933,0.9352051569742779,0.8898417213330667,0.7933474282778725,0.6849999497021813,0.6066381242397649,0.6630158717904209,0.7396973694167053,0.7788108198587214,0.7939223605800518,0.7804862320596735,0.7482512239222521,0.7485781734908641,0.7671602032341491,0.7518931213317708,0.7164234199378239,0.7299068778820552,0.7637291772064203,0.7585071275717534,0.7489353284636402,0.7361957827251806,0.7482983502343505,0.8154824659632363,0.9035385372689597,0.96987986014445,0.9263101615357701,0.8310900097008114,0.7246977748492407,0.6276764779562813,0.6374659788939523,0.6998666030265093,0.720916859000043,0.7134596678391558,HB
0.3843583978915497,0.28828901815896835,0.18524221850613654,0.08393924001730346,0.04168740020801054,0.12043863754719797,0.22846824415526346,0.33306717420813103,0.43702169715572414,0.5174228902752431,0.6049214108085736,0.7072846320347146,0.8139893176196096,0.902542114092092,0.880482177105419,0.7909412316698123,0.7159014839980411,0.6674170480336632,0.6081175711866871,0.5834833977631226,0.5987643757942498,0.6383475369875322,0.6742998182476712,0.6140942337594244,0.5087265171978614,0.40547647817467314,0.2994374212451292,0.19592970839327517,0.0912992826381166,0.0,0.01363704986594616,0.11194943301808336,0.2155034916348253,0.32146144168424406,0.4246715189302914,0.5301510825181286,0.6335589027246309,0.7363727652109135,0.8281904828468154,0.8172163143541766,0.7428621559527526,0.6940542918333419,0.6438941977685633,0.588805558071849,0.5444155825549903,0.5809270719067494,0.639044590675796,0.6658242505539205,0.6955972054408242,0.7004202006502649,0.6985421676611001,0.6158272369274598,0.5138646894533994,0.40821405591084936,0.3049461132583722,0.20165526605554573,0.127840308131958,0.17814728569629057,0.27957928841822755,0.38628404805326877,0.4940756779345268,0.597499150709754,0.7061021031381014,0.8105775787260487,0.9057622924379722,0.8978515416262083,0.8075328739983629,0.730595615046064,0.6900285689231962,0.6434100490861838,0.6078733426456397,0.6217307185697123,0.6538441360621985,0.6750585916631429,0.6782584943454943,0.6659504427534109,0.6703974038452782,0.6878250893768914,0.6615995532330461,0.5661414792837542,0.46201128513297185,0.3569160923405681,0.25198648650966615,0.14817698061920648,0.04711279226363907,0.019210707764576673,0.106382083924211,0.2107991575489423,0.3201149715061846,0.42615209279242694,0.5308743595746914,0.6391134772128455,0.7423365350832118,0.8411446914757312,0.8444702656513372,0.7595581428672877,0.6987541897293705,0.6623698420123101,0.6170528836802447,0.5791244732062852,0.5809065325113476,0.6261509878538933,0.6423312946039992,0.6361594557905836,0.6181471049282041,0.6455215374317924,0.6735690488025536,0.6268211322045361,0.5500665299570924,0.46540789046436815,0.36455300153242676,0.25862878606604167,0.15559726439598165,0.06278045847262259,0.06660393414629828,0.16718222418784134,0.27673593005757513,0.38328609387702084,0.48756840680366365,0.5964237281450437,0.7002668418282958,0.8061786840860814,0.8977692455128914,0.8832963407369667,0.797023147898603,0.7234267014806413,0.6804415143529985,0.6309346788647023,0.5986536225194348,0.6118003888823551,0.6577702885864645,0.6937390566834427,0.675718132489096,0.6717246041977394,0.7127330392632567,0.7396456652146197,0.6689097261445416,0.5645253211947274,0.4624003148254221,0.4054956157972014,0.48293684199822473,0.5874727814533491,0.6924458184572317,0.7698372061864056,0.7568262587815757,0.710759149656909,0.7040193486198847,0.7315351371174967,0.7142053826353427,0.6796327783721092,0.6519912816444817,0.6463549468095373,0.6871168884074459,0.7320155627798104,0.7935270763427142,0.8846081677762339,0.9707867609419252,0.9808974838391298,0.8884442745051135,0.7797165740498566,0.6762336979350962,0.5686676806746471,0.4634836823004864,0.3617019878050123,0.3397675585049831,0.4354250766084595,0.5384599345097492,0.6409415987239298,0.7169715252964948,0.7167172795979626,0.6723297294634225,0.6638266240700987,0.6851514180580514,0.6763848767853258,0.6382713092565733,0.6114707688188088,0.6350982070878128,0.6807331381053616,0.726838593912676,0.7847357966395003,0.8748966015740074,0.9685210231814869,0.9949107750189357,0.9124593922709614,0.8075732789670205,0.7034505672143352,0.5971614126200948,0.5187177398552605,0.5741946886445901,0.6731429943187774,0.7388330991567178,0.7233859506539215,0.7020825857932136,0.713928988438085,0.729129901491544,0.7152275379473492,0.7034414750712072,0.6731596066909431,0.6473709853095448,0.6701281422655925,0.7149980559447882,0.7427089822037269,0.8034185829007736,0.8917624724073268,0.9818968792827847,1.0,0.9156507348515657,0.8134783674325596,0.7074240116936963,0.6029469522588369,0.4967230924909354,0.3969029972616753,0.4060896484939944,0.5050962498452436,0.6137364565968011,0.7113453903478657,0.7580159394022989,0.744336828035939,0.7109834558673929,0.6985988241712453,0.6476441314510999,0.6028823924873423,0.6345906617149046,0.6882865999046264,0.7358639930198023,0.7901900236024906,0.8755889362655938,0.9456221591896672,0.8993860182551203,0.8021657595535139,0.7007742371783126,0.5982957322844606,0.4929649491068884,0.39061422557880254,0.33861434715491123,0.42094467965686677,0.5261808713499336,0.6300601822733778,0.7123073435639897,0.7071841019698779,0.6592435591263057,0.6355360892193749,0.63896984571017,0.7002873343619127,0.7465995822286302,0.8035496121484906,0.8904083411662556,0.9754300985033699,0.9730964460501166,0.8816573753764343,0.7767825333677885,0.6722093610268824,0.5919965520783039,0.6345376118729211,0.7200817301443792,HB
0.3030060521483158,0.3169555462318061,0.2776840984867941,0.18974110793096255,0.09138925199912684,0.027261905498100703,0.0,0.03568846170506301,0.10315506528102647,0.16508131587575203,0.238073370525691,0.2004573063773698,0.12916606215231807,0.15020182359394418,0.24279442692345166,0.3046979761981916,0.3214114172159621,0.26759962326931763,0.21074611927515452,0.15498775115115393,0.1692696306709558,0.2736782641060804,0.3848848635399693,0.49636663208162846,0.6151747870942263,0.7296812814337139,0.8133382829413205,0.7570748232403832,0.6539988854253211,0.5664729095612269,0.49319306011463704,0.4307326965815155,0.42867999365022014,0.441476090182237,0.4160211455370386,0.3652764604440786,0.31593555452442335,0.31706598294889643,0.36199661817122575,0.39160152271249515,0.3689764419874666,0.33112420376214136,0.319089860612749,0.3456724206006343,0.39965473254004236,0.40550930517333006,0.34799274369288424,0.27292412522235576,0.22306392004730347,0.19914997753208263,0.2845132517779838,0.4004944775732331,0.5140650026544074,0.6296766911022993,0.7297542628840876,0.8252719079453712,0.8771141773108209,0.7921517553822204,0.6922987490467141,0.5923830102786711,0.4995602901921177,0.44655864452384586,0.4380311385175717,0.4242789088354342,0.3958143589027978,0.3404891604511264,0.30343160285926496,0.3070408435504257,0.34206138008129905,0.36075822339377117,0.3313940040400585,0.27936691515234147,0.2692695343038616,0.3034235090178137,0.3514553127318032,0.34660201251262013,0.27183454046613775,0.2139004211428741,0.19866678122306292,0.28261342857437377,0.39840188362995255,0.5097347789767537,0.6296298043959254,0.7405969248588256,0.8207344515430028,0.7557877008921543,0.6537791452486488,0.5561678588316306,0.47140231154396117,0.4317351772562996,0.44057010395522855,0.44037092080181717,0.43173333236703515,0.36321913822016727,0.3038892186142186,0.29789958009422657,0.3413576425723206,0.3640866780928076,0.38315320707836165,0.3500460980278626,0.31420190385775504,0.31445042758274955,0.34893591695748594,0.3967103888065937,0.405372609343142,0.3364766358797686,0.26740842804881026,0.19920597626011594,0.23097290074451626,0.3362084994623431,0.44768497081471725,0.5657798839412371,0.677763498371057,0.7937961612801838,0.863488398710333,0.7931103929549801,0.6988390678356775,0.6031067304159636,0.5274860982312921,0.4937975427579153,0.4925574024861774,0.4899321828081442,0.4537165040143969,0.3837864878075683,0.34296020331331345,0.34611874846656665,0.3933690483541543,0.4179430490833025,0.3964436345410025,0.3587683422377044,0.33389445895634084,0.35715156037184803,0.40468013963698857,0.37968574740720795,0.30027397246376175,0.2451506752063093,0.30836535686776667,0.3796472224852927,0.434303693706783,0.47105076087697295,0.45270643038278546,0.40234210411632443,0.40365978058797714,0.4361582746635282,0.46995907677960513,0.47167835169299055,0.4381631037121334,0.3967256135871571,0.4248293771488574,0.49004948493000633,0.5374978107022486,0.5609299142001234,0.5610390939647494,0.5564178373207755,0.6243283508582835,0.7182078889707149,0.8120568468785185,0.9087232390315938,0.9839264649770563,0.9503433686891047,0.8479225498410932,0.7363432460376322,0.6234931097202021,0.5070979725815237,0.4261925258575192,0.43883749707258923,0.4655144364210084,0.43326602828677796,0.38856838086037415,0.37308676904452653,0.39246769709082363,0.44207699365140707,0.4284596841202424,0.412554459781191,0.3763298759365621,0.36686217103662466,0.42524810202536223,0.4838493497590468,0.503970019109643,0.5002926759443334,0.5148986287082202,0.5895173937326792,0.6894949389219684,0.7883532247091658,0.8862712036243017,0.9556696863568903,0.9155799262474833,0.810675193310415,0.6998800374306797,0.5824355116226343,0.4712545096398313,0.3723563726097314,0.3640073852499217,0.4105788684053753,0.42098428542082855,0.38976584075711296,0.33661143248163716,0.3276391904429503,0.375143489547916,0.41201497685605615,0.4037213692662469,0.3749908730094642,0.3638676098094784,0.401692768715062,0.4537551531619419,0.48063599880193175,0.4935689274856254,0.5042249405866608,0.5784640346123502,0.6781442765457952,0.7778077793606855,0.8764717860705908,0.9707961431727661,1.0,0.9166585628537338,0.8062361955259312,0.6949711181861518,0.5773475116770688,0.4666973239046004,0.3871370170549988,0.4025440248602421,0.4586478807759127,0.46752478858338087,0.4315947282807504,0.39091787767000286,0.40257269502385506,0.44450741219120626,0.4409165717193684,0.41317509510718997,0.36917011566992475,0.37931993865673386,0.430948738718282,0.47781193821011536,0.4957243433997536,0.48326441982585155,0.5000400412944055,0.5811199538434031,0.6746251708573694,0.7784851271872619,0.8708025209485659,0.9353266599729286,0.8906783375318583,0.7876186436659394,0.6716044106147816,0.5559355728527611,0.44112969519807477,0.34353334202188934,0.3408035724754135,0.3783109955374955,0.3699522994229749,0.3312439516485455,0.31471641260130223,0.3479214138194582,0.37435685296181553,0.35774683549298736,HB
0.913905613526928,0.9384768073414808,0.948452654159783,0.8980674919657389,0.8487957268077128,0.804579958827978,0.7571322406705413,0.7027011827229018,0.6747103552751638,0.6962118922692605,0.7299993949965621,0.6975521584127456,0.6102211808630064,0.5229057164837217,0.4301072928517896,0.3388995726844838,0.25060775791442735,0.15880627109320777,0.07259382663280833,0.025768495597265018,0.08809132733601188,0.17710314878620348,0.2710662195752257,0.3599606085006609,0.4504849855602161,0.544488172237151,0.6330415110716953,0.7225192149855281,0.8043901011752065,0.8194515572293243,0.7878267651728988,0.7640382926890564,0.7310895335431332,0.6760928722389515,0.6286744296644174,0.6315027288090121,0.6804756601615282,0.7173148417048497,0.7405116705932268,0.7547531644403863,0.7586149441101228,0.743557709153612,0.7172304758392886,0.7277974563717159,0.7678281847828113,0.7648631559421474,0.687971266241504,0.6006164193867444,0.5102401216413707,0.42183309539071445,0.3286168948496776,0.24110801892483347,0.14895695332348835,0.06540493043623019,0.05899113836537906,0.13899371978616415,0.2315159921761868,0.3188613119035725,0.41188983564339343,0.5018137557657566,0.5912593533833611,0.684054775006646,0.7712332210237492,0.8494197173776331,0.8503192549785336,0.8237181484811612,0.7958064116041367,0.7455560331898973,0.6891396990177451,0.6430736852473525,0.6589367848597606,0.7103665514071792,0.7589943178471276,0.781671873681422,0.7893900946131364,0.7861312585250638,0.7680542044938302,0.7366638301122884,0.7460623792538666,0.7788387903775237,0.7417613059269678,0.6578884471815415,0.5678724259228493,0.4794655634126329,0.3854376280126609,0.2910763756832294,0.1967202445850028,0.10377464500189204,0.02047539484459182,0.0,0.07739322212927124,0.16477503834424267,0.25830260469320454,0.3515582726722356,0.4389002306079831,0.5317878495993283,0.6255448102565601,0.713287582155138,0.8028223642811588,0.8682780785747076,0.8489670099579821,0.8327295034024572,0.8057797260352811,0.7588869683502123,0.6980168740820994,0.6403469784037062,0.6187255348173865,0.6619718512488156,0.7204099995279271,0.7508837778603313,0.7645123322921422,0.7540557801225652,0.7383139457888545,0.7167474641328108,0.7252586982488268,0.7663133043215195,0.7668455319087611,0.6907224441821994,0.596761975901129,0.5024280545856096,0.4108195294214455,0.32282054125425674,0.22929453315077775,0.14105904668735614,0.05577974386244555,0.04093106546021075,0.10791793855986309,0.18980319480008234,0.2830376781688996,0.3706555093532503,0.46286254909983626,0.5570039390212035,0.6460651176801543,0.7356792023802393,0.8215055454727246,0.8628927627649671,0.8437265443903447,0.8269200978562402,0.7907312905101139,0.7399893510982317,0.6839604704639045,0.658365843710151,0.6968713000996231,0.7286026347748854,0.697573756575686,0.7246554433204501,0.7822993282036202,0.8273323807093774,0.860128393967979,0.8814883406719817,0.9278143741511066,0.9321142763604883,0.8569398702177232,0.770192128828734,0.680076295524552,0.5918665598079101,0.502654217821691,0.4879153090513305,0.560396402792889,0.6509557807400558,0.737444117938234,0.8133165662908034,0.8219729828499326,0.7847013054278748,0.7493769675501224,0.7602830177450174,0.7800118318633141,0.7937692422798596,0.7892013091826152,0.7749617275177164,0.7493968895500255,0.6932853459256948,0.657798005662337,0.7019306211461668,0.7641541095607897,0.8142584633482822,0.851147831865139,0.871395346928976,0.9047972344866521,0.9428708112500287,0.8929184393759183,0.8081628187046418,0.7196481857101312,0.6299779972035683,0.5373343077812992,0.46150782441989324,0.48577047691237707,0.5753438418438467,0.6625387187284958,0.7495090210995333,0.8178381408972669,0.8121506337874579,0.779780486274945,0.7793840438928835,0.8082178913151409,0.819722247764188,0.8218491897789805,0.8068389157278762,0.7802549989929836,0.7311190925666994,0.6850188963759548,0.703550967665754,0.7568054476650051,0.8109881601293228,0.8420267075773157,0.8628954525349531,0.8987565032998907,0.9261267829650067,0.8695859935719533,0.783919784247248,0.6948870854697041,0.6025099192871622,0.53305403246945,0.5732155287396176,0.664520086340236,0.7505056303579057,0.8172296869252799,0.8141874074569345,0.7867779152621951,0.7527174661991604,0.7680263993209892,0.7898519330517905,0.7905080236628211,0.7807203917602571,0.7674325368696479,0.7377420884921128,0.6962657156633637,0.6616345496472483,0.697638008586731,0.7502493997007577,0.787406057292226,0.811067739877653,0.8461814964735098,0.8890560493215319,0.8553774078201722,0.7731904770416668,0.681493987120862,0.5871571789137614,0.4938463447642526,0.441896610160312,0.507193426931218,0.5980034765791259,0.6849821507411163,0.7597683753660324,0.7720024982418433,0.7386040625241049,0.7137842705459393,0.7508991668389654,0.8055147632099128,0.8474239027778226,0.8965075344210783,0.950955546357343,1.0,0.9848849445816384,0.9534273636381317,HB
0.7369893699286459,0.7584007818482533,0.7835603484955057,0.7821627342707521,0.7550295044577101,0.7456704904390682,0.7753950802606818,0.7634784881569977,0.6845043271678531,0.5909219797889836,0.5013725385186104,0.410647890255046,0.3211200988267894,0.23221586736635091,0.14360229035164995,0.05623747059135753,0.0,0.04479450535804719,0.1369766993461986,0.22629504268860778,0.3148286709469851,0.3860377811863992,0.47133356710389573,0.5619295219673616,0.6562852184136628,0.745435184249949,0.8333751704245981,0.8859642054188878,0.8843049196121581,0.8819515572998068,0.9014728657919752,0.939099180078567,0.9586190758474172,0.9078837122617452,0.8362294944896215,0.7757982483649227,0.7486865600268996,0.7587959094289366,0.7838877866561119,0.7933480833208132,0.7707315802056366,0.7553178479590831,0.774420881455005,0.7619952212161915,0.6841214509858816,0.5963466556368625,0.5064684297009291,0.41736097131834826,0.3259223731465154,0.23577203985701278,0.1471538259646007,0.06300245209269328,0.011747469972286484,0.06514503098149382,0.15215796980092244,0.24076570025146438,0.3234235151467141,0.3946468076933415,0.48194668780156535,0.5766975188732487,0.6660492973306803,0.7612508215424468,0.8535843991949915,0.9062356090065417,0.8973627425985274,0.8954983082153548,0.9161829127492899,0.951745082928123,0.9531913704256495,0.8904531263352505,0.8253889939047608,0.7833052811561466,0.7789763386332434,0.8032574433465197,0.8345538688489643,0.8493135856839281,0.8226103900109837,0.7922623988273135,0.7921064463472686,0.7919175117251381,0.7303658194992216,0.6456683765106696,0.5569910863033259,0.4613598037178416,0.36843552716757555,0.27978466798587676,0.19249888181104835,0.10947414020679169,0.06725603020671855,0.12606191554185775,0.21355416942928274,0.30658091837480483,0.393151594603976,0.46564739185165627,0.5552443339750294,0.6445741517955156,0.7373458044284059,0.8214303353377433,0.8432737499850974,0.8111787366517341,0.793547294798956,0.7984023678885256,0.8477091957456316,0.8549065159835224,0.8024443315802167,0.7324609020369454,0.6574755790382821,0.5841971557111788,0.5246343656807603,0.48582906010757043,0.4821994281975718,0.5289362038702002,0.5924749276521181,0.6579115769021607,0.7065080798106332,0.734815511499238,0.7544993474480922,0.7938495080653644,0.8333678191228379,0.7970097008507314,0.715691859121289,0.6269295893828931,0.537970693566093,0.44865083448148046,0.35988803775901135,0.2700529370362498,0.1872596853135463,0.17561683661580474,0.24946718865972206,0.3374289307920336,0.4245900870591529,0.5025392921200388,0.5877283994676695,0.6283047254272184,0.5612219070714605,0.4922156186644705,0.40641970747342737,0.327201313383917,0.35092244336134104,0.4366675061474984,0.5253348906168757,0.6201564778659306,0.7135488290455002,0.7971557832861197,0.8640139413450695,0.8673109142521315,0.8266237529009971,0.7856917247234595,0.7723415450376278,0.7453930162825463,0.7005739808837065,0.6432854097447674,0.5781905326078579,0.5194846458005155,0.5179459164103125,0.5605231514862862,0.6223304266115924,0.6939748979534387,0.773424239090012,0.8421376215419775,0.8888309063081455,0.8981403093473147,0.8516510181742037,0.8270769826439898,0.8397131316690519,0.8789094356795052,0.8856310186302675,0.818749236027824,0.7301912669639355,0.6379046101532401,0.5477140252010132,0.4639484841005751,0.3873237980676877,0.3130059207445156,0.234121090921937,0.24775689119167688,0.3327873512943681,0.4216750476286434,0.5127023864705184,0.6013171095901061,0.688050855720684,0.7731157808053263,0.8277787307456413,0.8318939505417274,0.8310670780502457,0.8607981276829618,0.883664242846974,0.8747643935525896,0.845538115571255,0.8137797849110625,0.8122031628390552,0.8522324116890388,0.9163599950470961,0.9787367907393701,0.991738705633796,0.9579923281031811,0.9314476158237254,0.9299578408143813,0.9353702632837778,0.8855164430766985,0.8018891488335619,0.7116236810866848,0.621286423584401,0.5258449535573974,0.4382909686440267,0.36466372853309725,0.28368118887866756,0.2329964819497411,0.2982512522237154,0.3872546149839752,0.47755717946971676,0.5673069982299103,0.6559921653620054,0.7427107127154905,0.8058902650897078,0.8147075647225764,0.7893746837997734,0.803903587096059,0.8281765107182376,0.8196910590512373,0.7966136325779466,0.7837743710577986,0.8164241911264937,0.8815511804442527,0.9526637030518658,0.9999999999999999,0.9837670342188937,0.9409436104526491,0.9176341803773517,0.9180778435181672,0.9239674575471436,0.8785080019383184,0.7989165611235832,0.7091186979429435,0.6170251183405807,0.5255222174605653,0.4379281095247388,0.3600348700831272,0.272438654755481,0.21109462086176867,0.2635869750507468,0.35222859985250665,0.4440441419690365,0.5337381784904708,0.62351109921229,0.699426384446561,0.7733167992030298,0.8203572274465695,0.809155916120064,0.7770445849926427,0.7918695553951972,0.8195024880434806,0.8185728438376411,0.793904225413509,0.7725997017063931,HB
0.6043948570325419,0.608684385689962,0.5983134473091516,0.5980735003492894,0.6050573028853283,0.5836923977062538,0.5997985254064893,0.6259676647868506,0.6203733751465692,0.6201722145074973,0.6377133533360109,0.713732580983852,0.6999861085945702,0.5966522580065008,0.48164564711375446,0.3553611615581178,0.2538937720504566,0.14892828524189605,0.07324532736136868,0.12267917035823173,0.23025077310512865,0.32854204228010353,0.4366777565763229,0.5220566274971246,0.5221695445055894,0.4886037414994693,0.4671361730862946,0.4391158801067494,0.4211708408132786,0.4260003818952254,0.42969127540899965,0.39930802413946287,0.38456975872605303,0.39901842379843,0.3992348321291419,0.36303531419166735,0.35342906544887454,0.3901636925203502,0.4051706525379677,0.4380761262707251,0.47048574661636033,0.5002684579887484,0.5757864720257295,0.6301482426922029,0.5469461819060899,0.4452960260738843,0.3439580926136081,0.21741244961137296,0.09478753804432971,0.0,0.016985579552409202,0.09950182425689924,0.20120984695325816,0.3067818911548521,0.42156293113905763,0.5022353469037912,0.5020107984363547,0.4695276334998253,0.44532783617055927,0.4198545414845096,0.4294420089529809,0.48869557688922516,0.5440690694372119,0.5542414147678469,0.5748419898539519,0.5808014252271336,0.5730272680982558,0.5730639106891604,0.5876176780367581,0.6300717255352244,0.6532566176812766,0.6852310258626342,0.74266179835847,0.8357301666446273,0.8211900468530611,0.7060289277599554,0.5860077563410382,0.4618282124754627,0.3463307228080086,0.29404305314917645,0.34539164647317566,0.44626801054285314,0.5519316212462955,0.6535949553268257,0.6423664562134008,0.6043269797704993,0.5751709845515971,0.5332376611671346,0.5070996475104717,0.5086762852051909,0.5123205459042248,0.4961636446118032,0.5352209874268157,0.5343417668057149,0.5361648017017462,0.528683546745218,0.5216990626309967,0.5338543769290824,0.5503761814012962,0.5581327718929003,0.5576967361851479,0.6112518634428361,0.6944689174921996,0.6401974255224161,0.5257085816883289,0.40012562703720134,0.27729513223936886,0.1558809347543626,0.05909395799672845,0.08010326762798003,0.17510095631674227,0.28922411501618894,0.3847550248996585,0.4981702508036845,0.576322422240545,0.5676020131975252,0.5421015381789811,0.5285990765355919,0.5286986987463713,0.5480621286891618,0.5505745958107,0.5096958243386238,0.49141047076847766,0.4836434797043978,0.4836733536234634,0.4948535290060865,0.5439303645289022,0.5428983698837895,0.5412306705020336,0.5579807849745189,0.5717131818654417,0.6063256868109193,0.6373046129858393,0.6189882203243013,0.6050686014447884,0.6180876772182531,0.627309668835299,0.6434214535630192,0.674920008719393,0.7218250250318952,0.6578175324662201,0.5445628067046155,0.4317074266279466,0.3363439494540401,0.2315996549930679,0.26920381510955327,0.39381559360759555,0.5157237621352957,0.6334783081061839,0.7410552982024292,0.8294116829665517,0.8445167662591264,0.7445931079933898,0.6526448009230004,0.6446686102212191,0.6481754662832189,0.627382171395602,0.5983382075318397,0.6039476226521403,0.6062236527131883,0.6279011717051239,0.6529718880371225,0.6057205146766647,0.592428371442649,0.5916517848260563,0.5716129376713388,0.592665445845761,0.6313396068640631,0.665341587270242,0.7036511686282743,0.7660789450970307,0.757010152037005,0.6722037506816654,0.5430099684581657,0.4443797921577186,0.46278112674217775,0.581120945864555,0.7008254271875733,0.8101237449671399,0.9146949775405777,1.0000000000000004,0.9801149438972145,0.881293916737421,0.7867400836539105,0.730570064109624,0.6990863812995673,0.671298024306513,0.6331377415865207,0.6266011224446073,0.6376667826840818,0.6574767625579647,0.6346425201559116,0.626408155770207,0.6117224540322015,0.5507901028224853,0.48857140091169393,0.4923145838431582,0.5437007906371814,0.5486641670866064,0.5611674455589952,0.5872392520619036,0.5587833210540585,0.4585057086374147,0.3425220779409037,0.23496505889012953,0.14031418169473353,0.1613841049604403,0.29581660214930805,0.4305272539298062,0.5505225565812615,0.6556962532058903,0.7478840477468292,0.7656798802061773,0.6716984403626971,0.5727702068298473,0.5354750100879855,0.514753879182547,0.4827770706803305,0.46697654673480304,0.44413479772847175,0.46737686691689717,0.48333470054780614,0.4844040257187303,0.5139706644532098,0.5311674690721415,0.5195762991327788,0.5054306055955853,0.5377706747850204,0.5624171521381869,0.5963199023859334,0.6036683410787682,0.6542303279441057,0.6215859149812668,0.5403622138264663,0.4348916265109608,0.32368878678271606,0.25711110220250966,0.35174877627401013,0.4737975457653971,0.5952348788338742,0.7012425442173873,0.8103245799323564,0.8956976371779404,0.8640613686069041,0.7633489683313841,0.7091946966519465,0.7084184014861652,0.7260386069541425,0.6964474361411499,0.6587324415185969,0.6652496432288904,0.6759324965822358,0.6855675419107126,0.6739104617449354,0.6898662574070644,HB
0.2253718739272399,0.1068375006767388,0.023298233987838035,0.08610010223115871,0.1957818093711432,0.34041067254942536,0.4494114581911317,0.47749940843546,0.5914259806036646,0.7349231733651185,0.8545112426750623,0.8945693576156892,0.8485941270855122,0.7782816826517052,0.7070969676676886,0.633833465986199,0.6176308719661141,0.6829106431373311,0.7469303869692459,0.7924701779438026,0.8248856754982739,0.8463801699774449,0.787642161204396,0.7236876564364216,0.7552982397894952,0.8343541813854856,0.8736254819664917,0.7860838701186985,0.6613468897602504,0.5288378224250945,0.39223513521399367,0.2547841303544023,0.13164012781147028,0.04877836803536528,0.11050050853142146,0.24630547417907156,0.39103958383424553,0.5423993741372843,0.69318572424846,0.8302956900058498,0.9272746887329739,0.9011747053558747,0.8428674787278632,0.7867712702194711,0.7166041507386884,0.6557902988139381,0.6357268718587368,0.6703081090640115,0.7108407760170952,0.7304913977258272,0.7401563264765847,0.718613246627021,0.6651741712632733,0.6805912208011353,0.7432193143531509,0.7560831932206091,0.6557355056071108,0.549166515646315,0.42067018465043615,0.2733814665014376,0.13079564246617714,0.01608533394900391,0.0,0.1180524273090291,0.2654397893626559,0.39950745389321396,0.5121189628413343,0.6167938897039837,0.7396757822017408,0.7850447798920728,0.7437696415549739,0.6997658164697373,0.631367612590013,0.5784013728681008,0.5913387956640537,0.6504520973645178,0.7058434409844856,0.7499019989938631,0.7969755289520433,0.8301102543865868,0.7998867701090018,0.7457718500625865,0.78622062007241,0.8626566232448756,0.8802234425066096,0.7762837664300264,0.6562970461486435,0.534839417003028,0.39496407036255565,0.25475107130365515,0.13964363121916268,0.13782268097494565,0.2575810990642138,0.4022515840736052,0.54150570664694,0.686022472907911,0.8165673287887425,0.8820374097275718,0.8587737050272324,0.828583082554327,0.7715935795882478,0.7037224228281214,0.6835173448894221,0.7196120105958514,0.7543402789978004,0.7847780774939768,0.8159434123530729,0.7963028165551149,0.730415579809093,0.7103442890599747,0.7796606331364404,0.8389235394155055,0.7825443274723689,0.6630756300917686,0.5421972404928348,0.40603060229839416,0.2666790275744222,0.14623391912802441,0.051902082519845294,0.11124586323827623,0.246844499033676,0.3959349197375879,0.533969558134527,0.6761505592791455,0.8056986904542502,0.8730940270713745,0.8316230281708754,0.7844404328825019,0.7249551388122253,0.6584994269941236,0.6118915101806084,0.6152591332815054,0.6710496287118279,0.708220326106876,0.7736729897753043,0.7857838119748788,0.7371713991553999,0.684379797637598,0.6955786190025477,0.7637643593449326,0.8229736268230212,0.8688630894330149,0.9208567423747684,0.9303664886838168,0.8400797851294834,0.696225688161987,0.5517228576261561,0.4118435625961636,0.3009020939545404,0.3726883833084518,0.5154162362668786,0.6418561151615201,0.7519227935566133,0.8674592689211829,0.9130661065992247,0.8661655117670466,0.7904886945853211,0.7964050935801028,0.8638848466644204,0.8782303494210493,0.8538661038233872,0.818261483479561,0.8048185623890975,0.7666317928522073,0.7544303073424552,0.8209260687080602,0.880952762116002,0.9165559786798485,0.949763469411784,0.9535297038956085,0.8564477608868759,0.7252746032672994,0.578563849174516,0.4398315318490442,0.300361798908908,0.2892498769104157,0.4297831760299471,0.5726043382704402,0.6899904096271015,0.8125913037039312,0.9320521110677675,0.9649391254280566,0.9202679742720692,0.8546262640409394,0.8598493051511555,0.9017710784820765,0.8837288622463051,0.8358211912546332,0.7906918940082885,0.742449156865431,0.6893274385592165,0.6415791735259946,0.6827356939594549,0.7525558111538273,0.7901487748451967,0.8355977209227237,0.8836167209246302,0.850973443440346,0.7463179743434787,0.6208023574755304,0.47731355238866824,0.34349486250334005,0.3104496839045461,0.4353615098157655,0.5683206876177795,0.6866906099737902,0.7940552397047012,0.8249797711877682,0.7814933688668773,0.7417377847400144,0.7841813393151629,0.8133933524948707,0.7853886752051724,0.7752713329242282,0.7570664872828683,0.7126726099654932,0.7065039306108356,0.7643168880818001,0.8343814194560628,0.8909234447692134,0.9464434299110942,1.0000000000000004,0.9734261586734783,0.8581125828588481,0.719256157761289,0.5813903982853632,0.4351567202763009,0.3495013433433809,0.45611234063536177,0.5906005157624916,0.708204101480781,0.8287449915571288,0.9349850099894583,0.9357992551271197,0.8738586148400374,0.8062474035692699,0.8310182861262638,0.8966602198805043,0.8926190904517237,0.857910721734966,0.8233377151846235,0.7705111168159107,0.7046003623366981,0.7013924683507455,0.7729342976632547,0.8423287777278601,0.911349095709165,0.9515126833779366,0.9684430714678443,0.9007331658831643,0.7805653482368045,0.6452096055486725,0.5434357096130773,0.5909244938533047,0.7022187659716139,HB
