0,1,2,3,4,5,6,7,8,9,10,11,12,13,14,15,16,17,18,19,20,21,22,23,24,25,26,27,28,29,30,31,32,33,34,35,36,37,38,39,40,41,42,43,44,45,46,47,48,49,50,51,52,53,54,55,56,57,58,59,60,61,62,63,64,65,66,67,68,69,70,71,72,73,74,75,76,77,78,79,80,81,82,83,84,85,86,87,88,89,90,91,92,93,94,95,96,97,98,99,100,101,102,103,104,105,106,107,108,109,110,111,112,113,114,115,116,117,118,119,120,121,122,123,124,125,126,127,128,129,130,131,132,133,134,135,136,137,138,139,140,141,142,143,144,145,146,147,148,149,150,151,152,153,154,155,156,157,158,159,160,161,162,163,164,165,166,167,168,169,170,171,172,173,174,175,176,177,178,179,180,181,182,183,184,185,186,187,188,189,190,191,192,193,194,195,196,197,198,199,200,201,202,203,204,205,206,207,208,209,210,211,212,213,214,215,216,217,218,219,220,221,222,223,224,225,226,227,228,229,230,231,232,233,234,235,236,237,238,239,240,241,242,243,244,245,246,247,248,249,250,251,252,253,254,Target
0.4826638852054949,0.3962627361378956,0.304669362346986,0.2198842462732451,0.14559352844535206,0.156210685951169,0.2408133032114364,0.3342073281380486,0.42615575858214166,0.515392839152004,0.608676224550101,0.7004664600465145,0.7812287149320527,0.8563953914303764,0.9201769989354884,0.9177160702759986,0.8755845070961821,0.8119132071383546,0.7546772082640212,0.7618770915938884,0.8191925160413907,0.8600694818634294,0.8482529838678141,0.8244921338140907,0.8569669602465575,0.9048573027189315,0.9000946860528771,0.8214361275147699,0.7310783634919507,0.642153914467462,0.5491628172927581,0.45543999077804936,0.361714880495085,0.26819964189771067,0.1783699540983899,0.08747706681153283,0.014870407567815769,0.047545086146904336,0.13439411009104907,0.22771695958726434,0.3212159606880172,0.41097993762472246,0.5022301844682471,0.5959023726818475,0.6884446909501354,0.7773885619634393,0.8691734260144275,0.9507505209539624,0.9716788152259233,0.9345650908493526,0.8716079199472784,0.8123621179191622,0.8105323225342946,0.8634081786997896,0.9035846366382028,0.8853206364970059,0.8646744410219258,0.9002334966724306,0.9339319624017015,0.8860250627288706,0.7973580037060775,0.7084421928139231,0.6159995867169401,0.5280030391163817,0.444938104752065,0.35476454205026525,0.26554252959687835,0.17361486507495683,0.0804917578586904,0.0,0.0031450708279129325,0.08775198586223526,0.1813816773107138,0.27297449253489997,0.35710721923781824,0.4459041864738024,0.5297216549689168,0.6176590244679319,0.7101925750172573,0.8021160270319132,0.8906804083464395,0.9654004042738107,0.9719065044913735,0.9272071542013078,0.8626191720701977,0.8165138236195508,0.842165540841767,0.9024934053012754,0.9339202332189056,0.9137992401678445,0.9062436268762475,0.9441518284554773,0.9388226120382464,0.8645441651545229,0.7753284447334992,0.6834112620482715,0.5943229053154193,0.5011332959475958,0.40815899574732156,0.3192126033546799,0.22665978427258182,0.13367632067528712,0.04592251124932856,0.0004427486761325039,0.06540423266280826,0.1553306186278527,0.24891842141941695,0.34263891363516824,0.4353698355057813,0.5242889766143726,0.6171150083902102,0.7106747357828231,0.8007408581506095,0.8898180319071887,0.9598113463356652,0.9563129348789405,0.9079958212771373,0.8460544869349027,0.7957691259351478,0.8156560392033232,0.8735029064779636,0.903596953845579,0.8837083104164278,0.8890435073122254,0.9306778422542905,0.9249257291282476,0.8498842903266506,0.7610643493973324,0.6697249406755628,0.5804253275263491,0.48708455273401347,0.3933598858632134,0.2996347105193328,0.206161826594423,0.1304586502404746,0.15491403661267433,0.24342142670702982,0.33550274317984147,0.4246356255091897,0.5178626506333797,0.6112465155281894,0.7006523155994029,0.7923032779124841,0.8831055699278694,0.952966840291797,0.9528449880405736,0.9074483166506138,0.8456660295226295,0.8175648023904316,0.8581817780194381,0.9091434075002158,0.9159107339693464,0.896265668290543,0.9200866781560908,0.9419824965909476,0.9211649691224102,0.8681765322265738,0.8437777123688965,0.8951046873932458,0.9515202694021345,0.9827315733985704,0.9687213680173214,0.893985477266789,0.802590342463481,0.7136862499719454,0.6210128124063934,0.5380771064720784,0.5563532348559661,0.6456052840740849,0.7296220050617137,0.8132564026584932,0.9016511712870778,0.9835809684526884,0.9867835999470742,0.9489890800539771,0.9090424303256226,0.9163974555593111,0.9258999032711186,0.8901827733869367,0.8356233405219435,0.8437644475711408,0.9064367464942231,0.9592394827225872,0.9928143492082513,0.9741149391085866,0.8984852655909095,0.8102542947860483,0.7274601486682621,0.6403815754149056,0.6062119067776717,0.6821274606298724,0.7708878723845713,0.8608136614122868,0.9464955679072449,0.9945342427987323,0.9739416893031703,0.9317621546356631,0.935526418521881,0.9567313109443407,0.9318631290343247,0.8750512077096562,0.8533931340491234,0.9083530645632278,0.966754976777628,0.999978368157793,0.9910686802500379,0.9176415743973503,0.8291123249060528,0.7362757442630825,0.6472486473709997,0.6172439086860522,0.6926008541059148,0.7846722274204279,0.8729703519763663,0.9544774422830511,0.9757004664816287,0.941664161451153,0.8974900132479742,0.9035722557749604,0.9281531917898793,0.9071944339760591,0.8545078597640798,0.8410988809735407,0.8984028151169994,0.9613823017178864,0.9953314611351931,1.0000000000000002,0.9375873105869137,0.8475877169491846,0.7583705543527177,0.6664662159604982,0.5738714229870328,0.5271268546664925,0.5948351801406577,0.6877252275855634,0.7768625463874741,0.866578843023305,0.9430487350033545,0.9417225553907347,0.898870343948148,0.854504199118846,0.867157413212444,0.8912373258525845,0.8757913809153888,0.822787858351274,0.7818971752604091,0.8233825512268902,0.8867839801810222,0.9339770231209747,0.9597269277398568,0.9482675722022984,0.8707112910281309,0.7920796923627431,0.8152876422850541,0.8939799623168434,HB
0.0,0.052034997686573874,0.1084184394967607,0.16481234646768414,0.22120625343860753,0.277600160409531,0.3339940673804544,0.39036176829858127,0.445379793698382,0.4995750893101413,0.5558413377561913,0.6122352002963665,0.6686283075027568,0.7246967650760953,0.7785003841962113,0.8340689694802425,0.8845648659640107,0.8761567341014,0.8255269102542991,0.7767405325191948,0.725148868231254,0.6729925575167386,0.624642422045411,0.5839190579320747,0.5450097331008119,0.5079305083584564,0.5077795328508644,0.5310684398404872,0.5586371430876619,0.5683694575797694,0.5944246505404858,0.6212234637271392,0.6132658320677098,0.5623182331281967,0.5084409329611048,0.4527495036473837,0.3990107617336898,0.3433995589252419,0.2893422714401916,0.2341570064788168,0.1778050032860062,0.12276417944563711,0.07448285365991375,0.07984080359896673,0.1318425586059655,0.18819153725132998,0.2444397894872117,0.2985684495644546,0.3536670421412727,0.4100388457459647,0.46641897841044266,0.5217303520514982,0.5756992036681937,0.6318863292069322,0.6882799786618764,0.7445945190389064,0.7990378880426766,0.8534299841767039,0.887797375137427,0.8523299113502626,0.7991563207739192,0.74810953857056,0.6996901484127778,0.6604998372857019,0.684435293916402,0.7381144895021688,0.7923431710405613,0.8462332627133007,0.8998366297910902,0.9531500929419013,0.9970782721926164,0.9836234179510308,0.9308646362776458,0.8761049250658913,0.8217125018076332,0.7654067246488149,0.7090128176778919,0.6526189107069681,0.596225003736045,0.5398322786155807,0.48511856570664136,0.4703237302291199,0.518710550378851,0.5738711509570029,0.6274464359275564,0.6707563813489161,0.6580522055232851,0.624665454062916,0.5944614639720326,0.5816870173525239,0.567179246623687,0.5358943625271331,0.5182107115666702,0.5394908527994997,0.5799135273259897,0.6176996966323434,0.6658291241453856,0.7181656116868094,0.771789884558626,0.8252101261303245,0.8785782019773639,0.9316719729994082,0.9750430372480041,0.9590397844454898,0.9046991152355657,0.8483522568894879,0.7935832159747598,0.7391652551005258,0.682855519370663,0.6264616123997391,0.5701052989102052,0.5152642879497125,0.46091367595546684,0.4046146905755132,0.3493266191864177,0.32843250472756463,0.3743415904356526,0.43018231086195,0.48391211016875224,0.5392168859858955,0.5925725422324126,0.6395874272903564,0.6404024553912772,0.6138748239725913,0.5859822569832474,0.5775332707781726,0.5516792917398913,0.5294251227810147,0.5282636533068908,0.5650420298084503,0.6036032059385399,0.6470815987123046,0.6970754890229993,0.7503265304053534,0.8038229985267823,0.8571240114135601,0.9101873208485217,0.960989321169266,0.9725387353584045,0.9258880857074816,0.8722530519139667,0.8165471695818758,0.7601604783717163,0.7043272094163604,0.6505982240331732,0.5947022944007493,0.5383104936214921,0.48191742435336593,0.4269784805576758,0.4098489774268389,0.4572759731659367,0.5117585763641744,0.5663051833784083,0.6203674090585413,0.6630196037793894,0.6507336033973655,0.6212474355304975,0.5920388899142583,0.5793368842087814,0.5566269473940464,0.5323022104904445,0.535657132619777,0.5721767411255156,0.6101114570595416,0.6524269407406736,0.702260544522923,0.7551818981415865,0.8084638359601682,0.8618643818146562,0.9155501019118966,0.9687590728298265,1.0,0.9655793797796138,0.9120755395203132,0.8570138042300476,0.8006437782655963,0.7442499014864581,0.6879787587718931,0.6337606848428878,0.5787685965510626,0.5224026453496847,0.46600875101854344,0.41027047454878596,0.3825585935170065,0.42269617021229816,0.4774231401023442,0.5327779166633158,0.5866312603996071,0.6395049354452068,0.6608236202681155,0.6329134171709929,0.6046025721918806,0.5847589136529026,0.5762153413008227,0.5465245058120008,0.5240307637059433,0.5308807429073318,0.5688149562872182,0.6082047982685439,0.6520333126996727,0.7027640036270867,0.755545021907876,0.8086237230169105,0.8622834159157553,0.9158650322860694,0.9673744731575562,0.9810024539446245,0.9358867696123757,0.881967771991178,0.8257481944391808,0.76935444434862,0.7130299211276915,0.6585077756147854,0.6038478061094711,0.5475072184036315,0.4911133114327084,0.43474120306601344,0.3842580319192448,0.39147609851666243,0.44484050805938863,0.5004954403462865,0.5542582616800821,0.6092575405445703,0.6522511506803746,0.640976466028215,0.6107001909441202,0.5798170819474338,0.5678151305762372,0.5462218071901945,0.5281871992802144,0.5248860604117207,0.5564698830318748,0.595274272792025,0.6365425851813101,0.6854688863158658,0.7378724857478834,0.7912497187059423,0.8428646407924877,0.8920192047446729,0.9456817513486623,0.9786930316055293,0.9459379952888455,0.8922142023319269,0.8359393560344491,0.7796848897951961,0.725531844122019,0.6704625026683196,0.6140974626813679,0.5607805334115146,0.5548739589020003,0.6045541044811954,0.6518364206697336,0.6505221051267533,0.6225307769063219,0.593454501423337,HB
0.9026957780463061,0.9186480138140798,0.9352232559768932,0.8865130159674539,0.8241950298704055,0.8021547906493769,0.7806279431497984,0.7489971135087543,0.7306073751415043,0.759226780792142,0.7078525639954136,0.6271203383736188,0.549452131001652,0.4702503013467642,0.3888857379900747,0.30786620037241835,0.23060825066714397,0.15085501598790674,0.06994130423172895,0.0,0.001678195282610484,0.07546319883899025,0.15681933522970448,0.2382208384676605,0.3196223417056161,0.4010238184197897,0.4822331916645625,0.5600127942199986,0.6390678325648529,0.7182017619884602,0.7907675051406016,0.867247432011556,0.9111316086104599,0.8931821899496926,0.8612891476977012,0.8226959744141571,0.7784347223255663,0.7462265572530993,0.7720664647529831,0.8339319902604065,0.8912905207868442,0.9233289544836847,0.9279124361895628,0.9271948029090273,0.9160434239115653,0.9388408374260093,0.9568294243652802,0.9128363491084155,0.8366960768406002,0.7588194105178814,0.6775898670540941,0.596188379548382,0.5147868763104262,0.43355185949080427,0.3556506194073826,0.27672103681707433,0.19546264557997645,0.11704070105875153,0.045637479774188555,0.04466052808439955,0.11761756500670811,0.19674208538000365,0.2744189030326896,0.3556012461793523,0.4369960681794434,0.5172791025068311,0.59426882503123,0.6750183245450763,0.7563924788549723,0.83583249012648,0.905905576787083,0.9217121442360336,0.8955149380850602,0.8595777231403607,0.8156201929430733,0.7691300423992908,0.7547203982377713,0.8003706313639294,0.8624370375683816,0.9090540394084916,0.9181033135932093,0.919587671186278,0.926803062230044,0.9157667322825982,0.9203959612263799,0.9475261124666665,0.9227130794547274,0.848181706542144,0.7737887430707604,0.702452406270565,0.6255275687039594,0.5570040395584632,0.47787429239674933,0.39649467015422296,0.3164694139372414,0.23937155209302657,0.15848324044195478,0.0794780790580199,0.038216659432551314,0.08290696891380145,0.16061349826044458,0.2390566627928608,0.31739464412537394,0.3986932322651208,0.4800937586138166,0.5610028170962771,0.638109014275787,0.7181194382810749,0.7994840157888083,0.8776321768030224,0.9218743003371712,0.9088720779931785,0.8773489128948835,0.8372215611553722,0.7913309996603679,0.7493510116790489,0.7620550995110211,0.8199190404358023,0.876960239627657,0.9058776148627115,0.9123136619064158,0.9239003926537588,0.9220578800990689,0.9114500422574277,0.9362074851500972,0.9436972398080778,0.885300036487233,0.8074673892208373,0.7293193300073704,0.6480445116439004,0.5666430084059457,0.4852415051679891,0.4038431106530748,0.3232544139184797,0.24630800873981373,0.16582948743321602,0.08637398453640943,0.04307204666542774,0.09193136718969294,0.17163802888508262,0.2491639485305368,0.328537003227928,0.40990930578016377,0.4913075724932439,0.5718847030858749,0.648837123487761,0.7293286297830062,0.8106622553794465,0.8866125418579927,0.9215242625366398,0.9356335001276934,0.9497816345992327,0.9077738606641981,0.8301791179455094,0.7509869042447324,0.673354368035745,0.5921825490344668,0.5107835776417433,0.43229967701310296,0.41636000031675796,0.48845396909750455,0.5695740181785645,0.6471382315061438,0.7264534372351157,0.8063122670348732,0.8833848518126517,0.9595255318652558,0.992304856756071,0.9668678866462403,0.9394274662099675,0.9392523130719201,0.9419455980534206,0.931079661634648,0.9232429083635241,0.9082907874660064,0.866362915546701,0.8083985364182804,0.7731801667773051,0.8076338458803245,0.8545008931940439,0.893039851727091,0.924093756535278,0.9471507401153432,0.9516661580309875,0.8986213897879081,0.8192337412219646,0.7378459314104386,0.6567064254514403,0.5994367084051688,0.6413337115766813,0.718171933173827,0.7898036009949128,0.865389635736872,0.9440230316559728,0.9987175000906765,0.9816198817745883,0.9528947078969017,0.9388057333692839,0.9447860267265511,0.9378627838692495,0.9356757943275762,0.9255533580986093,0.8816007500006475,0.8216285619403112,0.7800152894633143,0.8062849656823705,0.8534852450923236,0.8921917050070167,0.9252894613936209,0.9503811777941518,0.9559855292235562,0.8972248946717636,0.8190140136987671,0.7377014073890102,0.6568268826399184,0.5797594194664406,0.49986723896894364,0.4395785704927366,0.48086063254862527,0.5614071279134378,0.6411896620665118,0.7184253052996665,0.7993854042770498,0.8782986881499864,0.9545847126186293,1.0,0.9792647999359216,0.9504344815623058,0.9409790446854733,0.9456659818506925,0.9421098453090064,0.9331750628550985,0.8926859731164387,0.8298881109482319,0.7765534304078316,0.7880664675699276,0.8312074624477312,0.870665733796963,0.9031067861594111,0.9313892265275288,0.9498918211400593,0.9062691428875294,0.8284988409027338,0.7474795852133345,0.6700890344140145,0.5961737548191801,0.5953306600430093,0.6679473106440668,0.7488890814513813,0.8264604463993224,0.9049615498672154,0.9689178266218381,0.9662889948856606,0.9415410461668345,0.9258533604076304,HB
0.557596737948644,0.6129694548115465,0.6537939451746178,0.6555198072531345,0.6329331155530342,0.6014515867870944,0.5658415549296856,0.5876834516103235,0.6167235767349868,0.6327082429585709,0.62846013948114,0.5671414056229096,0.48516018475109746,0.40198307433938196,0.31528710254395675,0.23142782349885216,0.14739319150836494,0.06227173592849511,0.0,0.025835346899309386,0.10489015883383412,0.18995470648068213,0.27715194124086096,0.3631549955540526,0.4532725134509198,0.5403230891904471,0.625841346175344,0.6750437138793053,0.6709046641089182,0.6840278241164601,0.7205689142226357,0.7659408274182598,0.7511524682962158,0.6958704196015391,0.6760899648319691,0.7069023407759585,0.7476762020295817,0.7950000492803055,0.8262622972414018,0.8416482664718672,0.794496126003656,0.7153980361000334,0.6329279407957393,0.5505877340593146,0.4664759023094095,0.3797054524740867,0.2960820930306085,0.21852950517633973,0.157824315985703,0.18517518620277273,0.2670225368075563,0.3542915889615659,0.4446484982341504,0.5327381200008257,0.6184936863043915,0.7086330137053085,0.7982154752867501,0.8711698622227126,0.8886483697709047,0.902078421617597,0.9295519457123957,0.9006395751926892,0.8398905268149268,0.8167160382221896,0.8190681430241447,0.7984643704329393,0.7897613904518319,0.8043813324458271,0.7679988887040092,0.6834092449203453,0.6000431181843136,0.5163267593392266,0.43183587113401967,0.34609175456690155,0.26320593334976616,0.18405423819606204,0.11469019524772706,0.11964473007895515,0.1971342363724764,0.2860852881557877,0.37545573426783263,0.4605563529888538,0.5500384667162304,0.6402610626567651,0.7262867515321756,0.8093390246027174,0.8598790437218704,0.8793743787638169,0.9196367358508155,0.9489612182361074,0.911234485914135,0.8510170170091964,0.8388463412343974,0.8369916004276079,0.8048251975652543,0.7554810882375698,0.7189442934255397,0.7238586312100461,0.7021589022524646,0.626353446628348,0.5383741912765698,0.4512968825717292,0.3681287905194437,0.28393677318492494,0.21377920828444508,0.1391733775393651,0.06155579960862767,0.04733957456838245,0.11833514100146036,0.20092055781354434,0.28857913880874253,0.3751886568582006,0.4622568708032272,0.5526246508028636,0.6419811330649454,0.7158496568724484,0.7102896193934647,0.6927931110846028,0.7100656448185705,0.7202883573950976,0.724346265388744,0.6705053687021814,0.6109360226688298,0.5878284897569606,0.5933655880841393,0.5997900928927553,0.5982444285608675,0.6250291327027047,0.6576774200232538,0.6179703012740152,0.5554620658130571,0.5897411138277053,0.6666391189104353,0.7032212145670675,0.6699481890559587,0.6379682976027559,0.6413330156997621,0.6424750021203334,0.6409286296427372,0.6492088752592589,0.6889565540956701,0.7568442489140774,0.7878287742508687,0.7658834012298563,0.752774367187452,0.7765458365204281,0.7973296971359265,0.7425193898301463,0.6550969050442343,0.5646650582129431,0.47420305380774397,0.38374104940254317,0.29337525321388824,0.20649380157470254,0.1321229937823697,0.1458118400035021,0.22788787635074037,0.3125764628772837,0.3972980143810715,0.48141144902064137,0.5663683943653732,0.6483977258557518,0.7247486975956119,0.7665785145611967,0.7735329193574052,0.8002596739071941,0.8430478120794178,0.874303428828189,0.8790354751646388,0.8869806316768485,0.9481381833291231,1.0,0.9907750626466776,0.9511383470279302,0.9110431596199549,0.8824463228657307,0.8346759407082132,0.7542048697797836,0.6684014981554336,0.5782473851420697,0.49011894847652115,0.40439183488631125,0.3142854347498074,0.23205913979271753,0.23891800037345656,0.31843743417919634,0.40316252315677314,0.4886953098060616,0.5722898772516665,0.6543417674997063,0.7372542223258494,0.8109221677129528,0.8317332774160626,0.8158019706699686,0.8316484293627293,0.8451383360881195,0.8435882492596098,0.880195593428384,0.9401555500320642,0.9593245639362613,0.9294207627430502,0.9166546343084601,0.9127931451469742,0.8563341895483927,0.7691309297339985,0.6816579020651443,0.5954182561565284,0.5051536493871011,0.41477474036549067,0.32773741948583224,0.2602632935559269,0.29551533931511276,0.3788074611981701,0.4590641145899619,0.5348964621859558,0.6179209596057964,0.7008601883878312,0.7808431485550329,0.8477953898424957,0.8707362457456012,0.8505750540150123,0.8182896817345207,0.7716823193728906,0.7286377299482751,0.7155718068901857,0.7613912133049396,0.8124684709350645,0.7952135132807785,0.7509018717278344,0.7255051408162443,0.7329633185290692,0.7455828570766472,0.6741916687085492,0.5918490784389836,0.5180381828683129,0.44566302344865383,0.37278023759427625,0.2935118215248693,0.20643950060094185,0.12201867475151607,0.069521506416509,0.12990423658052663,0.21605063152869985,0.30112146020412656,0.38631423825672806,0.47070961284940727,0.552083117936238,0.633778191059551,0.6905230925898724,0.6853181112259539,0.67080405744593,0.6996599785320046,0.7057197667795707,0.7205603090463679,0.7597342803028568,HB
0.8924253291244097,0.8874808050529901,0.8786539705065717,0.8867686032786652,0.8972415462544754,0.8541558417287707,0.78312632210052,0.7099655475135394,0.6326083005140746,0.5583234294351955,0.48313011950419243,0.40521476697199893,0.3290467928874949,0.25555068352401517,0.17839053042285485,0.10792658199678612,0.09195407917844522,0.15824399729259025,0.23130885398237794,0.3083808497861323,0.3863708122567568,0.46410574380549635,0.5379200928458532,0.6136594929675347,0.691610330925511,0.7680811511655061,0.838828215000164,0.8934962398388109,0.8923980076411877,0.8577071998013692,0.8241554202779398,0.782323338671963,0.7449017418774531,0.7497238732559839,0.7917212604645942,0.831823539693713,0.8416839527990632,0.8353316751687618,0.8339535110073761,0.838490956042617,0.8609977494267294,0.8464130507729044,0.7813280915215726,0.7068610344481179,0.6336218392493018,0.5571615739740421,0.4811682236776061,0.407554339285022,0.3298925657364929,0.252029748521961,0.1775690027924488,0.10257370992862402,0.027717268489550306,0.0,0.059825600646130794,0.13754903752261677,0.2129285746092302,0.2870488334419437,0.3648554559414399,0.4428377357401741,0.5192487100902428,0.5877898706902436,0.6509499113710524,0.7201206400355156,0.7857652009487677,0.8409253053304198,0.845460099147771,0.8140485012295793,0.7789020466371215,0.7367018412660515,0.702675142042761,0.7114058047452969,0.7535252355168345,0.7905041852672101,0.8063637724575166,0.8164626042013674,0.8237709958012969,0.8359435472800212,0.8678179075629782,0.8674339545353171,0.8061521139160346,0.7390975743305637,0.6771633914919566,0.60945893520904,0.5342415141332535,0.4568500222288722,0.383582685602943,0.3070229061527438,0.2293948264565126,0.15695422643994417,0.1198457961008631,0.17198585231915903,0.23561726566178015,0.3110786442304779,0.38890382330785805,0.46319202847809876,0.5383834824550766,0.616314813077036,0.6934925969347885,0.7666255177807408,0.8435011626845093,0.9109368265618925,0.9099574610531083,0.8815176642695279,0.8472857486995138,0.8068877880343057,0.786210283881841,0.8137033847846522,0.8556375320194431,0.8820174927993394,0.8765871502674116,0.8694933401045193,0.8581338883836731,0.8711927822615764,0.861554209196453,0.800155342732775,0.7275142096534213,0.650351439328616,0.5769092617494478,0.5006555857232726,0.42278685892799656,0.348147899994767,0.2733248388001693,0.1957762938664952,0.12237563102713683,0.061161809828457536,0.08395449908496971,0.15911916190061415,0.23710736652194214,0.3150978939481131,0.3922204098554359,0.4653464097744366,0.5423620966466816,0.6203476922257178,0.6973598289405263,0.7704880717727951,0.8466277373063218,0.8927714227933758,0.8680483055624135,0.8348881050344987,0.7955607497400272,0.7548155289314185,0.7396608237310625,0.7715541945940281,0.8129349994906832,0.8341073436674855,0.8459187302762581,0.8514539433706019,0.826891465542325,0.7828950704521831,0.7621987953182934,0.7946739245030368,0.8350474289971812,0.869225551911806,0.9083029165630538,0.9631103582856606,0.9754751661744026,0.9159369182574228,0.8555155626208351,0.7846668180665759,0.711345103452961,0.6337989249778988,0.556288444361966,0.4850904040769007,0.46659116610739176,0.5343288155251373,0.6118053577054956,0.6851491267150296,0.7605716138964331,0.8321752591078933,0.8885701245834619,0.8966240944812569,0.8798188351995861,0.8854422269278168,0.8924688538158316,0.9012753416023211,0.8900511232524098,0.8518179216730559,0.8123908726112914,0.8229145648773639,0.8637655209701605,0.8965307676298819,0.927970872049696,0.9795820180912154,1.0,0.9439339547639096,0.8690646459318552,0.791130659583341,0.7131370892009117,0.635153391434,0.561871465217731,0.5578972830589264,0.6274943302682499,0.701282332954084,0.777501722663948,0.8494327541032063,0.9028415879977498,0.8974187780797525,0.8690803382554759,0.8445638581535366,0.8431391186513084,0.8287267246915628,0.819513847062044,0.7969150940699838,0.7556581125657973,0.7252342561940393,0.7512821946283521,0.7921674357397421,0.8276611033362455,0.8620386052420923,0.9134769562650666,0.9321717374790941,0.8715197312490013,0.7938201564780127,0.7160668285265126,0.6421782612628328,0.5665278297218042,0.48963086005420026,0.45514358792573667,0.5125734644006843,0.5880912606833226,0.6640601580013232,0.7375999154355448,0.8119210195614488,0.8715980617926955,0.8839442600624339,0.8624825025072791,0.8564345751891711,0.8548999544639488,0.8597101654099228,0.8560431983337493,0.8246681393131032,0.7790095150746521,0.7714498335122224,0.811580703223157,0.8494939060520508,0.8821186257049605,0.9272056750898077,0.9780145326784029,0.9620587123662203,0.8928692448034559,0.815334962199427,0.7373421496736465,0.6596802292844544,0.5975358358989926,0.6212989597478817,0.6931940928232225,0.7680581293310977,0.835510215789901,0.8935212210712988,0.9194596561350783,0.9065426956837732,0.8993177764423088,0.9063344100588784,0.9098427170095302,HB
0.2989361162418285,0.3712943574757901,0.4490763964479467,0.514216703870604,0.5834889941618806,0.6167684579422497,0.6103617324641177,0.5949098995608642,0.6229805429187689,0.6833025189493951,0.6907588257038524,0.5998766546790526,0.4898443587345971,0.37531688121696205,0.2628260633607753,0.14934528073253484,0.08586563373892919,0.15626700201770816,0.266881367350831,0.384448884494782,0.4998174196650731,0.6137939796527039,0.732195024314737,0.7836538640269055,0.7400809159924726,0.702746746559906,0.6542129270222918,0.5875682194234824,0.5284267765319719,0.4922257381200237,0.5310401204299608,0.5959234755861897,0.6265344817807839,0.6279410461059769,0.6047785419356326,0.6247493672334998,0.6815658088105099,0.6924007006049016,0.6081823417528944,0.49813979673287534,0.3859572530992086,0.2716537470902931,0.16371910372675247,0.12210048907951809,0.2078486198584737,0.32210377319983263,0.4343515150932442,0.5536174679074126,0.665316175616449,0.7743317202039124,0.7800533635395082,0.7264445476831247,0.6995229595337957,0.6527536873710045,0.5893247602829417,0.5199011053415596,0.4678107850198783,0.4890976792576722,0.5546508169722479,0.5979186368772698,0.6141794181828757,0.5979136179419087,0.6017717233254116,0.6508880760276365,0.7077733583050347,0.6814452745514268,0.5785773016795057,0.45839251376673684,0.34325969991646077,0.22938217587595777,0.11694792338834326,0.03756857748839071,0.08871604706006497,0.1981137647672806,0.31536482094141505,0.4272907989198651,0.5471207520437094,0.660784765295028,0.7736570307096742,0.8153072851408287,0.7638864964216261,0.7258952134433183,0.6800040144357296,0.6160831101109958,0.5517317157372135,0.50655438541622,0.5338424066552643,0.6008559702195735,0.640861893673381,0.6504656002504301,0.634831664333906,0.6246448110676261,0.6657226248928974,0.7220739908257621,0.6971272821585923,0.596954617752331,0.48585880961254246,0.37121737134924726,0.2694606911656441,0.16693227385237996,0.05449201267040005,0.0,0.08449736287522369,0.19563556528975656,0.3144854995329851,0.4264040648134366,0.543255021310068,0.6427089090394309,0.7283349312984899,0.8250350797902046,0.8141217810506463,0.7668317900924182,0.728950739014776,0.6734565388875107,0.6065251243681578,0.5526576412207722,0.5508584349927934,0.618767331506352,0.6832670012874209,0.6949837996512105,0.7094966806044412,0.690796375229237,0.7003297725309141,0.7463266627816847,0.7633898193933428,0.6846145470566192,0.5767544218093394,0.46395921649342853,0.3433753781796698,0.22287347099097055,0.1197784418615202,0.11961537803557376,0.222222631815707,0.3345237449466929,0.4503599320977756,0.5634313570639187,0.6836145539404541,0.7900687655362237,0.8433117920642308,0.9299034853852339,0.9972222716497068,0.9359152428996407,0.8270364672052917,0.7082098556642247,0.5960639904367773,0.5936098911879466,0.696276863151853,0.7921022066233514,0.8112890663785526,0.777391336378886,0.7356117416241601,0.7495028801112242,0.7499826212281391,0.73229679290635,0.7038024036551305,0.632129350626182,0.5929721835592183,0.6397467935310337,0.7058664632119116,0.760944089865047,0.7997651643868189,0.8506710722421482,0.9346681421837812,0.9999999999999998,0.9411773088618156,0.8228766695637801,0.7018845217984284,0.5809280923738511,0.4691951715186675,0.46775997852132467,0.5712264021851963,0.6805821893015176,0.7633268746663762,0.7721555668343705,0.7229285496166169,0.6712243203192443,0.6832405039466212,0.6966303660468725,0.6849817728718561,0.6531880014759464,0.5932852659661771,0.5590150801851654,0.6069088204904232,0.6717878056958859,0.731781106283764,0.7709056821146463,0.8148334334798675,0.894430813818784,0.9668188685840635,0.9244738769164524,0.8309586730659493,0.7183707602218468,0.6047560639357432,0.4851621113739115,0.4194414089643095,0.5047800002519478,0.6156910497108303,0.7137585534558195,0.7532246890376963,0.7183676584798719,0.6572670407537788,0.6366272233002148,0.6597492650460184,0.6497725866688298,0.6257290154940554,0.5710293238511668,0.5112322163771625,0.5388770137101087,0.6078312201585654,0.6757653069546581,0.7240654729272908,0.7606796885086207,0.8235684638722451,0.9138436342602148,0.9572423869923903,0.8780946765500206,0.7635009930260466,0.6504976434104568,0.5380336625432556,0.5150910751453754,0.6161628938035542,0.6993780860352363,0.7491830584598633,0.7296875540566552,0.6741453387019873,0.6513228998947571,0.6725574408693944,0.6634083634921912,0.639586612673211,0.5849545838559258,0.5436549782105093,0.58538457247226,0.6509843635652841,0.7108905681322681,0.7490385199070662,0.7945979062928277,0.873990091425277,0.9516852009359542,0.9118682809455423,0.8030893050766623,0.687734664630056,0.5714800486954632,0.48895970541036116,0.5468960523768691,0.647753114512948,0.722365041535016,0.7444699888717905,0.705509532605886,0.6504211010886889,0.643823897563742,0.6569868256659961,0.647959121185995,0.6081029379174974,0.5472534829995899,0.5434530687787487,HB
0.592417864220607,0.5254218009046354,0.4459846322401487,0.39733204641217257,0.3527500556171139,0.33843222831564235,0.4005916783578667,0.4615311191989042,0.48361054320574903,0.4964378499225236,0.4335215217497983,0.3361854972052243,0.2379506301408748,0.14100486185017214,0.04630853444308963,0.0,0.07100580685311558,0.16739725333227695,0.26730176572366293,0.3674787394176787,0.4644160390012172,0.5639648445867845,0.6646349325245721,0.7594979135332532,0.7705823887783195,0.6945081643519079,0.6325484022689166,0.5770423259090909,0.49959871323820115,0.4171102935483746,0.35987845652717854,0.39421964794118336,0.46135363595029133,0.4966167301991258,0.5180520993500627,0.4860840585273416,0.39580325947331185,0.2997959611851392,0.20318408109540775,0.10676408489877232,0.030130340380389253,0.06963056765497755,0.16429428476990793,0.2641095421567876,0.36384209726512684,0.46071450660898094,0.5607692133955783,0.6614539703655401,0.7609874239984994,0.8306678323879154,0.7850090514376981,0.7008569677358537,0.6376973045058002,0.5813599501430085,0.5011122528367338,0.4171651481580947,0.35052880849823986,0.36787452278502797,0.439267853989167,0.48784435780230695,0.506980588069717,0.5102149140630936,0.43991790210115356,0.3466718790567357,0.25050098095563933,0.15473671029393177,0.07346910557630848,0.09881366170924621,0.19276035871539043,0.29120687903732523,0.39179740507017,0.4904483990162396,0.5879925529438383,0.6884815149386211,0.7833058055592793,0.7966060470954434,0.720950526757023,0.6571985840372822,0.6015494574386118,0.5239504009608439,0.4409180231866201,0.38226112978493454,0.3997685135241378,0.4531157261969666,0.46823860063764455,0.48773784526430464,0.4453218673014777,0.3528011846928524,0.2566958633376669,0.16034681004667384,0.06738115200875816,0.037357569126326595,0.11926733676795981,0.2197849838581648,0.31955114880791813,0.4164168267002928,0.5164495581379485,0.617045071474704,0.715123276315574,0.810382961079814,0.8407829431944903,0.7654306546590456,0.6830598259304766,0.6191117317179147,0.5603604302291103,0.4828148624938676,0.39804768205483654,0.33571223847089016,0.3631700448590627,0.43352223583258864,0.47850293321514414,0.49919347028701455,0.4835066748277733,0.3965273460974288,0.29714171474756135,0.2006811166577579,0.10458737234832377,0.020362745921284398,0.037043159089235334,0.12933193742998444,0.22829881990996526,0.3284404831320138,0.4200743402719075,0.5142625439273226,0.6147769835261588,0.7143525897107791,0.778235383192324,0.7289635357467569,0.6558196358676628,0.6155548039679491,0.6375375216511491,0.6985584775804604,0.7806691719313043,0.8692364987574527,0.9519648922117333,0.9439778089665619,0.851832088279186,0.7618370344539721,0.6891226919425503,0.6121504548893564,0.5270787041013811,0.43301069181455354,0.33339121781341163,0.2425310049513757,0.25326589318526915,0.3446345622869541,0.43969858480958934,0.5153605556743897,0.5181521116964449,0.4986492264344008,0.45426729878058403,0.385578501187849,0.37304563911044886,0.44618418072357435,0.5315737588356945,0.6000643362203848,0.6546975745903264,0.7307632092563418,0.8190138600200162,0.9101724024211205,0.9804802825292885,0.938545188695537,0.8401930812450681,0.7426264776873827,0.6440040013313614,0.5433786916654016,0.44424912233778524,0.3470912673418308,0.25372410839602455,0.2527882991157129,0.3424401448291061,0.4370207753119034,0.507450813882186,0.4993725479822144,0.48256384530894014,0.44847543996465666,0.4129477886378774,0.46659085654914756,0.5491414846483554,0.6236604574735332,0.6774344315799233,0.744967332281106,0.8329644711760135,0.9248448600303903,0.9999999999999999,0.9702674947896025,0.8805381311365271,0.7885228245871229,0.6883133477826612,0.5886720543189506,0.49177169493353634,0.3938374040153928,0.35783664602249576,0.436165709148297,0.5229553202771502,0.545219794419618,0.5199218146521958,0.5021524365682792,0.44405484205639023,0.3810734784480744,0.40572309332723633,0.48694108344715203,0.5678345204240627,0.6322909855283719,0.6897450925082823,0.7684875430034442,0.8572300320294325,0.9472698200498532,0.9633001738744141,0.8784480377053171,0.7816611705020847,0.6814826166098306,0.5813288277743577,0.4844111688074657,0.3848177668388554,0.28533207255445536,0.23520006051244413,0.3066527300697952,0.4043497961707515,0.4990843352626363,0.5453640133781793,0.52560567731208,0.502274549386162,0.4482843589608788,0.3884858416090279,0.4183596623856549,0.5010635246979596,0.57833855649317,0.6374837919559558,0.6973005044100958,0.7802555178958447,0.8684834914481615,0.9372206954055674,0.8935047350054265,0.7986801571245788,0.6986394965588211,0.5988551976698973,0.5019928404851569,0.4019776840675613,0.3017394231521259,0.23389389196620725,0.2889029535124822,0.3837566907768669,0.4757438020513154,0.5206910841278065,0.5051636445661352,0.4861930230781786,0.46039480083917017,0.44177803691876993,0.4091693460535226,0.3708359207502301,0.39594388399073144,0.47815306797982193,0.5603140444940051,0.6203833360735276,HB
0.6777265308379843,0.6824503137935254,0.6258198274908859,0.5401455964756205,0.4715509649495002,0.46830976311374917,0.441487563005837,0.3937317875471147,0.3137559845220179,0.22448766400434783,0.13724811795338276,0.07475941396836117,0.11541159538769374,0.2051269495365955,0.2924499513805643,0.3814568467998589,0.4614176512684758,0.5351460153506225,0.6055849213618982,0.695363096475947,0.7750975256802584,0.755065232416319,0.6996910318878578,0.6764174903162621,0.6639883130307933,0.6416206500508461,0.6317543229187006,0.6319835464195616,0.616920839406742,0.5997040977742867,0.6162086846939956,0.6616921591696712,0.6693719932821085,0.6106746188934433,0.5241025125673799,0.43141290220400674,0.3437535265370464,0.2531001114625915,0.16140457324078583,0.07457185357519758,0.0,0.023693271838405416,0.10890311018296917,0.20016332308817353,0.2872963612662143,0.37993448191991863,0.47284063908242113,0.5604003698264686,0.651195841590025,0.7429862869568313,0.7814077611588195,0.7237456513464633,0.6857798421017924,0.6761486982832827,0.6608665995585301,0.6452625382134483,0.6352230737731634,0.6181039399407058,0.5946894157971163,0.6125206562622847,0.662071008672908,0.6805093280636871,0.6353128363516789,0.553028379908282,0.4661231711743459,0.3777822680594607,0.2884638702202995,0.19724359316628426,0.11999806253717626,0.04543458707909387,0.053051788444266945,0.13514102955190987,0.22627310608396956,0.31339678445434727,0.40602539676108496,0.49842993438438765,0.5854170886609218,0.6772593066801138,0.7687039808807974,0.8321632058734554,0.7902285917044609,0.7204486902615077,0.6909065297552497,0.679360791560073,0.6583334908198892,0.6470404790188864,0.6554677303308625,0.6509241979837574,0.6275631246950419,0.6421278199165366,0.6886682373213615,0.7063262068365264,0.6553408592908383,0.5715369295332904,0.4849015656912583,0.395588612931407,0.3086663036909749,0.2169933224438103,0.13705575374252554,0.09440222464265646,0.1516299152332139,0.2379347969742025,0.32990882184812564,0.4194193874598773,0.5080558982358905,0.6010004342562945,0.6893193876066022,0.7785964501895419,0.8350899437683774,0.7831718470421527,0.7233219272661977,0.7036668154072168,0.6836187450793243,0.6589959910779435,0.647595717373487,0.6432179081925526,0.620707052450068,0.590029578813249,0.6082253648516904,0.655384066807764,0.6724093950608245,0.624695051811188,0.5372475010448285,0.44502574961409236,0.3580741138500061,0.26662267621939173,0.17932492268492095,0.09284426659911083,0.058180663650744924,0.1259490731220656,0.21576682966446148,0.3036588401014009,0.3966846281273717,0.4893984435857661,0.5766188811489683,0.6678715059052784,0.7487419348026014,0.7359513567855243,0.6915204517283746,0.6766270362968803,0.6526973869886081,0.6518491784102689,0.6815167881197461,0.7030495156162055,0.7185218626001144,0.7706385762723793,0.8503932249321051,0.9296467298401072,0.9454966700686065,0.8726046010141049,0.7864508584363818,0.6958093075390195,0.6052487869315142,0.5200457814164468,0.45908147538416455,0.4978273267577855,0.584247737047227,0.6611679197690365,0.6978264203588525,0.6857546564006847,0.6434474522297817,0.6314273956535867,0.6571807216758601,0.6713662164314527,0.6758394294937964,0.6930378467976137,0.7196511378577701,0.7329417202229827,0.7809560474194812,0.8590624644700093,0.9433858637672001,1.0,0.9578298106795755,0.8737879234248225,0.7814927805812117,0.6881541668621041,0.5948183878571971,0.5029056007803863,0.42594127068790244,0.4447791091143114,0.5309053618353368,0.6181860119971672,0.6965270661536025,0.733225141011655,0.722133682728717,0.6788427816580431,0.6603832669009322,0.6814948017610858,0.680664065141336,0.6717342149941699,0.6861536132851684,0.7107628706151321,0.7221586847523889,0.7643044144990245,0.8422172372144168,0.9295150684338367,0.9633909180381888,0.9004955649449475,0.815536012406644,0.7245848703005844,0.6358151983344542,0.5464593329702201,0.4557364908248007,0.4292538517217279,0.5076473415088627,0.5997612827867063,0.676788110303824,0.706695114275486,0.6924385074880164,0.6474987560930112,0.6321661685770987,0.6543515149891015,0.6664729376097152,0.6804685095672338,0.6913185423490318,0.7040103976628995,0.7209763216851863,0.7768693442232244,0.8570362374605762,0.9385525797304561,0.9673215525343579,0.9009775619706211,0.8165823078997203,0.7257095825486597,0.63685872369954,0.5475889879933833,0.4546431414108152,0.38918273443202933,0.43773383635036,0.525721283435922,0.6110095916420804,0.6835015051289355,0.7055952918417492,0.6834184843132294,0.6382984453454006,0.6362687749494014,0.6554642910368729,0.6614772955990513,0.6599627957253655,0.671535241641283,0.6938209521409051,0.7077180530558718,0.7516250867086958,0.8280927722632982,0.9028632444278892,0.9608355704025018,0.9275590975820833,0.8429489448050009,0.7558282904756837,0.6635017862085382,0.5830569345159486,0.587271774689968,0.6608903928130005,0.7101109292866394,0.7079662467002152,HB
0.3877289218450795,0.43453000883638243,0.46493331737770255,0.510496090811082,0.5587026769020849,0.5865723859631291,0.5980446468084251,0.5695407759541209,0.5326007506254018,0.5563421326421043,0.5984235288790272,0.6106735986813647,0.5770109742226217,0.5089650877810814,0.4384679147186095,0.3682821239879979,0.29741455736023187,0.22400580456772307,0.15227267508422032,0.07987535377712734,0.017418669146095578,0.028876107018244557,0.09820052472970586,0.1698672076906408,0.24468818538050935,0.3193593429006882,0.39033969577202715,0.4578160517402888,0.529931208625088,0.6045379540051203,0.6760436171308806,0.7435059307167309,0.738522901503269,0.6731883405792949,0.6104459147964885,0.5667569304712887,0.5332074667043323,0.48802648265122145,0.43122942038713113,0.3726340569446143,0.3408326249342624,0.3816659709551556,0.44567941650059867,0.5063921735855765,0.5353984144299966,0.5378323500951876,0.521301608071153,0.4910296322075682,0.5183868783901646,0.5636939837971886,0.5841641172688035,0.5612111598982894,0.49573958093424614,0.421565278322598,0.3498951962419536,0.2790462937740062,0.20605540053941435,0.1324428126647933,0.0610496249142814,0.0,0.01395195148016537,0.08159490243478251,0.1557216803974823,0.2273272565235342,0.3013342354625314,0.3765006262381873,0.4516768423811442,0.5268530585241011,0.6020247513649244,0.6763572050826032,0.7476963861483956,0.8044888109028558,0.769879906698854,0.6999252417785282,0.6322274035723223,0.5741261947733467,0.5416630822581285,0.5138564722939554,0.4626093377741343,0.40406421565648926,0.37678640193621843,0.42002833790175736,0.48205967310741765,0.540601623380742,0.5781389455510968,0.6041714385840697,0.5933288979839222,0.5517221329156445,0.5330014459425043,0.5743497727304026,0.6009124955588458,0.5933049492605387,0.5406253286919267,0.4712140355640601,0.4001367614506109,0.328859280679106,0.25748755010307983,0.1858287200727921,0.12143025249595729,0.05179429841929156,1.5028554153695417e-05,0.03606580537328624,0.10836459438523233,0.1799175926438577,0.25455967035140364,0.32747633965357587,0.3999163348338572,0.4749783544760446,0.5497070840007701,0.6212738693769082,0.690135963161306,0.6922061429486572,0.633438307641826,0.5766637173197322,0.5460401902672065,0.5176114352621353,0.4656614071346327,0.4087021969883197,0.3763861404725372,0.41484665361515966,0.4789817184360084,0.5383495298480774,0.5712502295896589,0.5907674244078456,0.5791494149551042,0.539711071559974,0.5413840675525965,0.5843144150642388,0.6075382749083924,0.6152847680151803,0.5931205504913903,0.5644047786874269,0.5901027640143846,0.6111050625679724,0.5969410322541331,0.5712492746537949,0.5202122775567555,0.4579846644551118,0.41135060983196076,0.4411514664423815,0.49874312311502617,0.5425125841519884,0.5666414816632266,0.6082321157279993,0.6717036038366284,0.7406358991646851,0.8130613155010837,0.8880689973167408,0.9565768537696835,0.962289919107894,0.8981261866622936,0.8252679762207387,0.7502929367779276,0.6780040744067328,0.6049200968725359,0.5297912125242972,0.4546888791031595,0.38192216748686597,0.30945679827255584,0.23907688316517078,0.19014410840999535,0.22691625964923384,0.30031775874310124,0.3749328809213654,0.44607107582051014,0.5164272722825438,0.582581535254366,0.6152921668455558,0.6120520988766829,0.5807605779641223,0.5680792479709911,0.6040030966511276,0.6223880975901983,0.6024563638026974,0.5732399627587854,0.5225147217584827,0.46065268385153074,0.40817501633171777,0.4318271479562425,0.48845278401378506,0.5344120862806843,0.55949113382026,0.6002960893842908,0.6637084107778728,0.7337344974337743,0.8049202136198133,0.8764060133805602,0.948330210983158,1.0,0.9656540527918285,0.8951551164287297,0.8204184254249711,0.7474350859673389,0.6750552910392458,0.600011184638199,0.5259137916383714,0.4543488412726127,0.3796426597041454,0.30511131827489985,0.23471199144609572,0.2025988459428832,0.26081931458111945,0.3319477498477756,0.40237744124009406,0.47397190885022583,0.5437219966516544,0.5935618489614825,0.5959960862004636,0.5718215226595038,0.5292256593030875,0.528862524659564,0.5514929855663899,0.5546107734509098,0.5451039071237052,0.4954031854213466,0.4337869945355047,0.3801270606543095,0.39769302041974003,0.4572207760034909,0.5115631367684854,0.552418755292728,0.5868166799409311,0.6329224160762026,0.6904267131598254,0.7583617733405152,0.830505172157995,0.9044904545820847,0.9652547281602686,0.9499665040305807,0.8816844157385766,0.8078888578598884,0.7331230135979478,0.6614894341212836,0.5875392450433954,0.5141129122579793,0.4511491990555139,0.3870033870866206,0.31269527199563524,0.24492830218509548,0.25379697447942046,0.3252117377045653,0.39859574895226363,0.4696594328604026,0.5401930055364643,0.6032927303759963,0.6259941586954125,0.6159248119527152,0.5810903600343496,0.5745582327600021,0.606269959667439,0.614238796795066,0.5904381232564,0.5585714998567222,0.5046480919772205,0.45270963047494744,HB
0.03509220587447914,0.10813637441021096,0.190637962590246,0.2718069889712573,0.3493459075405635,0.42083793516718426,0.4800067912297158,0.5227453750344527,0.520928557439632,0.513636557006247,0.5855642871622769,0.6670444750641739,0.7423203928151493,0.7628749407352572,0.7041404636480849,0.6615808771087884,0.6318664089355909,0.5892526957694969,0.5323474834862044,0.4711498185842552,0.42732437931772027,0.451431255133128,0.5123116734763139,0.5655261926922598,0.5916916848199131,0.594272428637809,0.583933128100535,0.5787477800413384,0.6044385844118848,0.6266915441846249,0.5988550680463748,0.5275115571647658,0.4576832954566462,0.38246794271551143,0.30480024941140416,0.2235739583819064,0.1409715103811574,0.059756516770166024,0.0,0.03026457807681382,0.10982996364552411,0.1866596920689959,0.2609423319552735,0.33831359116900306,0.4199670848171073,0.5025818729768382,0.5851912013914468,0.6664161909516607,0.7435890094102166,0.789422930835377,0.7364676363702859,0.6730391430311305,0.6260307866841933,0.6022828374008796,0.5766753369623158,0.5227738033858892,0.46532219240533723,0.4357549135079126,0.4735916147274184,0.5360433638329168,0.5927664583807039,0.6250316709006968,0.6342497949115437,0.6298653688239416,0.6196620581514852,0.632666523876901,0.6600633477801529,0.6426766184012905,0.57544709384525,0.5076480705780745,0.4420690740812,0.3668858272420483,0.2864739064081332,0.208378613266886,0.12614462992907205,0.04566822595557052,0.013478137988343963,0.06778401579410898,0.14164768003532202,0.21041833465703064,0.2900408624922628,0.3726340298385037,0.45517606459739945,0.5347674480627581,0.6138024795096512,0.6962862963496056,0.778765098967403,0.8425995333429798,0.8085194777536499,0.7374473384402421,0.6801179603345447,0.6470218723018725,0.6122324756024632,0.5596711535407765,0.4998754774377415,0.4469422753585859,0.44243529775492485,0.49630855144764074,0.5591581598866336,0.604849991386725,0.6259721946394522,0.6222538251237933,0.6059577235581982,0.6012260650412661,0.6247640933943802,0.6347623495634912,0.5836218201497522,0.5081001027917623,0.4287568451044642,0.3510315873930301,0.269970194241935,0.19150317709189868,0.11145882397158713,0.034188642329437635,0.0017703145610049598,0.06409694283611878,0.14570900077696458,0.22344963023771836,0.304844301166755,0.38745616389216553,0.47007203268150555,0.5518526391509339,0.6295470242594697,0.7111130858990874,0.7934545060027894,0.8507948207046213,0.8070575101690797,0.7346242017377241,0.6731421784219208,0.635610414875006,0.6048032481008162,0.5554427875209839,0.4938101006819343,0.43749937530424265,0.4248632339049897,0.4745966205922434,0.5356492457928769,0.5859207139222681,0.6089366091628267,0.6082288298137745,0.593243299274116,0.6020029215820858,0.6191271323217521,0.6324500966686176,0.6288967851082788,0.6037896459606443,0.55612003354183,0.4974448217111823,0.45814996329765656,0.49634777787453566,0.5556423265891636,0.6089895964101962,0.644915481646681,0.6766791430255071,0.7348456141453049,0.8084643626431417,0.8845595931275362,0.9597183533555681,0.9950396314309634,0.9391751182660307,0.859873421620796,0.7778317768805892,0.6999307144472952,0.6188987244219984,0.5363092587323491,0.4605681798040361,0.467459658416562,0.5415798012346987,0.6151319776669019,0.6591864092190575,0.6541887031648584,0.627792214573215,0.6223900044994263,0.6378707023819558,0.6481376885434255,0.641895712009123,0.6134055345316395,0.5629356540820708,0.502743979768366,0.46716641267487746,0.5087912850830337,0.5681107209231341,0.620914324872382,0.6587594182098407,0.6894835302953107,0.7415881049156218,0.8138628797083008,0.8944289798481978,0.9693224093833769,0.9999999999999999,0.9429035365017172,0.8639147119220897,0.7813983143445821,0.6998644512247653,0.6221618854762531,0.54035705012635,0.4577428096021944,0.37789110042883756,0.36073030110668114,0.4318812417436716,0.5099275027864846,0.5915396655807862,0.6593669605945139,0.6819998164469506,0.6642766740780602,0.6439696622651042,0.6518475967977945,0.6558377032786565,0.6447857189295395,0.6167930884821416,0.5627873875191146,0.5024874933312696,0.4722696401472468,0.5183080300201369,0.5745322448246649,0.6140821326840108,0.6305222169695092,0.6705321037499733,0.7356798444901894,0.8113135799249415,0.8915445456195378,0.9553465412283789,0.9360053276994104,0.8603218775973437,0.7785691397941971,0.700816618928587,0.6194659917344395,0.5368574252105393,0.4571375069254783,0.437608339022439,0.49834622235793946,0.5735110002625855,0.6349589714817555,0.6460901379150877,0.6217495953872777,0.6011621820654459,0.6092217708668252,0.6159274794061188,0.610713559682221,0.5787660832035829,0.5228019602784825,0.4663354874211887,0.4723674547272857,0.5331099564022245,0.591479191772638,0.6378276389210306,0.6694204692091944,0.7076229495719243,0.7717698085772792,0.845799701692432,0.922271625207821,0.9905160149420903,0.9803252111378781,0.906017868295213,0.8300317325082737,HB
0.019897047791667122,0.01542535117927546,0.0758779550613734,0.14735793105049066,0.20875667971665302,0.23477927343228655,0.20469174191965012,0.2011533215423087,0.25896731678575613,0.27707415034412286,0.3121153561639748,0.35038405538859163,0.40158328034193425,0.4297070848734511,0.3912602651274627,0.3896362045489866,0.407845084693922,0.355948259171584,0.2747396138698571,0.23050753716048045,0.29157380590564996,0.37868000905597776,0.46935944826812925,0.5580904836642492,0.5862608509263517,0.516309121879304,0.43921820018260205,0.37857357602374775,0.3184308910265171,0.2540276771676525,0.18373809556719323,0.10972657385561446,0.03777276880607483,0.0,0.045332163284306226,0.11868659350351263,0.18949704017271718,0.25881898887270205,0.3098454405783563,0.33553808587007194,0.363461014659881,0.36074395702764794,0.391097242212498,0.3937022323130185,0.31921936374372095,0.23416815471189012,0.15376537413300784,0.13895651950804844,0.21568074880690247,0.30372380843816227,0.39358736301758646,0.4853051117603645,0.543207488946314,0.48900812719163367,0.42130684644095184,0.39288888204149985,0.35028938633094253,0.2746871389080817,0.19303254103055312,0.11641478304989883,0.05193576326252669,0.0493757229536016,0.11008710018670864,0.1845014962179239,0.2554349954189653,0.3132508680482077,0.33972868940502454,0.3671628747349819,0.364376779698974,0.37059495525401454,0.3890481492093917,0.3348311196458639,0.24693672899097763,0.15774946103034548,0.08215384489519795,0.09195253743227882,0.173664234493207,0.2653532114277749,0.3576093886863002,0.4485045179799424,0.5231786298296431,0.5006316095647071,0.42286924962087336,0.3863799259301731,0.3744096461484149,0.31186922134390216,0.2380754990456998,0.18263902705622725,0.20065868959929434,0.25754611176124664,0.31806465149614926,0.361262411535448,0.39091589974377794,0.42769142362794754,0.4281393397816896,0.38975694479055434,0.40224945122058775,0.3814956275939515,0.3013405187330239,0.21576824888001067,0.13862916558750538,0.14095992565604443,0.22047063368552344,0.31083602080342654,0.4020384756787033,0.4855697374963234,0.5001064175134134,0.4332918551584085,0.37423178697416504,0.3219554661067098,0.2587949428086892,0.1848909973979903,0.11123907895855911,0.04708376348331356,0.042918424527818244,0.10389759155082157,0.16583199834981843,0.141104513931689,0.07951082488294492,0.08948240875564584,0.15964066222862872,0.23179780562623464,0.3009840319196716,0.3582636629540633,0.41241610244151683,0.48043582240195926,0.5624914339853165,0.6490638809082921,0.736335721382631,0.8241328011914882,0.9086145978303183,0.9232753420186194,0.8465139431666354,0.7549947268843286,0.6627310224620871,0.5708334866016808,0.4829307265376178,0.3925574457664228,0.3012320401283496,0.2528424860219243,0.315252368763994,0.3966753839090963,0.432536352977149,0.41655062364812745,0.44160573002353953,0.4561652738416423,0.4255496319727402,0.3911433829701775,0.36082112308735714,0.30291462773351674,0.24591855309442234,0.21813367540940298,0.27113969499614277,0.3427062491103171,0.39982798765456795,0.41306094839480434,0.4543117755884297,0.5278887420650312,0.6075799005976247,0.6977151891177943,0.7896847671840791,0.8633551925899662,0.8390877540891021,0.7525866616934435,0.660403634841397,0.5699267201068418,0.48209053892456566,0.39023283035612744,0.2980761552336054,0.22310027763213158,0.25578639276622006,0.3398162502360257,0.40488241520626744,0.40852230565365166,0.3866198783620328,0.3968703070938929,0.375441557722494,0.34792341808177396,0.3146371327727019,0.2497380884436704,0.17680708735450135,0.10694635218763182,0.07905153760857275,0.13707367777966206,0.21446149597609432,0.29408760694808567,0.3671573437513619,0.4141332505905243,0.4493537463002021,0.5218358983801804,0.6067035881591855,0.6940833118107369,0.7827934908206772,0.8677003943642224,0.8990159083302415,0.8348242153985718,0.7460205223475814,0.6538141563041996,0.5615484547366197,0.46967929888353666,0.3818361470449546,0.29739471210657176,0.29504158788391555,0.3731825146000983,0.4268313421616651,0.4131925144680252,0.38577162327034953,0.3869992964798964,0.35709516589462476,0.3295604338710735,0.28535434534031834,0.21774330836253375,0.14519097573627937,0.0717762724034623,0.037278894544036545,0.09376793344959533,0.16990813595378318,0.24068921494871154,0.30613960675289464,0.3706740632282767,0.42710850544170575,0.500250615435592,0.5831050636256708,0.670238670704188,0.7583905962628438,0.8481654127352555,0.9357297855144392,0.9999999999999999,0.9565151056057718,0.8658247500967596,0.7737168426223827,0.6850489277322943,0.5956063872486753,0.5034491595134903,0.41381984108936665,0.35187328696945486,0.3915271217164621,0.437866123419668,0.4536562768951581,0.41560505769174305,0.44283270630169824,0.4540359126307384,0.4119180365136347,0.36265025843809495,0.32426580651801873,0.2636438176531134,0.20402672467429472,0.1382204194222889,0.0680554324655529,0.056743467281511806,0.12725554779448855,0.1927580879097095,0.2511337560592448,0.2710184192676869,0.22425239462013513,HB
0.29162639211974584,0.3512261980135555,0.40514851225085213,0.4472717438448762,0.45283767164229893,0.41106475050836566,0.3855741828634546,0.3510593536604937,0.30939365858979573,0.319389659218951,0.3909525570799136,0.437704757516718,0.4179909613894278,0.3370319392109328,0.2429376156374773,0.15252781611703392,0.06493724165258652,0.0,0.017399261267911914,0.1022330840195208,0.19685912390048743,0.2935114913758995,0.3888610321692788,0.47839580740803334,0.5631742671412007,0.6530633987068267,0.723568560988649,0.677134444134793,0.593017343953352,0.5276596690715348,0.49371697440455253,0.47541181454890846,0.46930931812841925,0.4761802749795062,0.4782342720991052,0.44191320945765467,0.3558846697617085,0.2603380347368075,0.16945595025142557,0.08331601305083314,0.08325687053442954,0.16664320997600235,0.2625980597662644,0.3584584787398305,0.44871465122625,0.5436216302663749,0.636495591480959,0.6532303713629363,0.5845104475449546,0.5352179699761804,0.5212905429800391,0.5102862151049464,0.4817194560771375,0.480290539019553,0.49419452954119725,0.4596169738369865,0.3729064287887066,0.27957032899290735,0.18692045021745052,0.11527286184483299,0.14971720526205534,0.23740648233072792,0.3329292353273773,0.4257203471088976,0.5175391831775759,0.6115267454721008,0.6403717220962778,0.5769606741450269,0.539814942151032,0.5209078364609411,0.5105303025151912,0.5024896242829332,0.49262677335668037,0.4915964140354926,0.4760571103706909,0.40679786077631463,0.325751932450863,0.2420806090035016,0.1487411583932733,0.064894773227261,0.0651974837429411,0.1521156919778356,0.24230031657034823,0.33735257396447904,0.4214578228797664,0.5056656633619206,0.6010843697375786,0.6878610700662241,0.675974414944516,0.6003424947301604,0.5467953147861645,0.5250982441831366,0.5000637865146284,0.4657598876784469,0.4695856553247607,0.5011534634733655,0.5122579577879777,0.4971647302050727,0.42208651489079163,0.33182149686049545,0.23570344984441072,0.13905881657383168,0.049359562440909444,0.039691608093348485,0.11933018799940098,0.2147115208350946,0.30691853643461753,0.3993065275487756,0.4956146861160261,0.5867575957508996,0.6521074622008537,0.6079341010619687,0.5489300304871064,0.5336578117839686,0.5185902390161267,0.5211828642467037,0.5220993962521078,0.5148284823617161,0.5123648186140551,0.49713798521047103,0.42949371082977683,0.3384556913699125,0.244756971856109,0.15472712166782798,0.09085646897112032,0.13521332796074803,0.2275723577630001,0.31769106749404596,0.41326638455539555,0.507540900264852,0.58820146953044,0.6652664341128723,0.7159987033198604,0.6643424440284714,0.5889242690118847,0.5409453681577366,0.5245131958205288,0.49145506070819056,0.4594785991644722,0.47423233997196623,0.49008620851039597,0.5008575152069291,0.5393714824427761,0.5576736377784114,0.584602632461359,0.6503014761913039,0.7349251026789395,0.8240580563843442,0.9008481490157939,0.8850673452893728,0.8001762584096276,0.7057320753613369,0.6142301632202979,0.5211026538920981,0.4248577505284775,0.36075282069829406,0.41822313299630454,0.5044375308298278,0.5471661546292875,0.5356213497533794,0.5396415785291596,0.5503656930773927,0.5466736815136614,0.54307155121529,0.5547891615730557,0.5704933547140948,0.6274572370520876,0.7114403813071807,0.8050078953822305,0.8744085392656086,0.8422293759023524,0.7521356689761761,0.6599666563145689,0.5676348874379759,0.47273670716171756,0.43382639367181486,0.5058936732936318,0.5611536343304074,0.5398434687641825,0.5330892991155852,0.515804043967835,0.4936212238284875,0.5193050485191447,0.5453659547143822,0.5658069634161692,0.6221681930685786,0.703595699497317,0.7919251268562778,0.8778009720959411,0.9108611820786748,0.8407619067527877,0.7446887842142366,0.6480762418850664,0.5548506148505464,0.4691162865326036,0.4629186621682103,0.5225036822733024,0.5188980059015152,0.5190804816230731,0.5180573797801288,0.5263769409875824,0.5344073700952289,0.5498810015677195,0.5678218104180593,0.605622940607243,0.6893176758543008,0.7682129028032386,0.837622876751701,0.8294359611053203,0.7456741221818991,0.653781860900016,0.5595495601750181,0.5231083902012076,0.5629495508299881,0.5324029856056721,0.5124275780526556,0.5091370664696299,0.5389470779170181,0.5494826427642631,0.5560698185792704,0.6034652815888414,0.6822819218847834,0.7678036417863224,0.8421668032381916,0.8240342756570337,0.7338538924836641,0.637238515240489,0.5460163514446722,0.5313113624207951,0.5801516075312309,0.5399916051403929,0.5107079556386475,0.5076023483389461,0.5080490269965882,0.5156097765671185,0.5356245605495816,0.5786014888856245,0.6593053187682437,0.7476867619168525,0.8363441833550346,0.9253198982703991,1.0,0.9794999985827334,0.8925659891263599,0.8002227674517942,0.7083049982863329,0.6122454103909191,0.5215038931568502,0.4358847162148657,0.44123144743797693,0.4857707206024303,0.4896736358945798,0.4990722051579787,0.4908939107567748,0.49925085605434216,HB
0.4682229130903466,0.5306152982112275,0.5846645324026252,0.6285765092954096,0.6555675021545926,0.6176369204312322,0.5836965663742173,0.564351378574462,0.5383773539811127,0.495385127687489,0.47891570669177286,0.5181876374841401,0.45506324329043246,0.35666000728624736,0.26042604531947466,0.16224305094026126,0.0661087286361659,0.0,0.05490387231032978,0.15459052902395487,0.2509146395560017,0.3521777167348905,0.4524052229058073,0.5407550115378057,0.6347433979492529,0.7356175968436356,0.7951863447228189,0.7414200724386519,0.6775632345201301,0.6301957382421159,0.5734044927245161,0.5195799091642204,0.5304647898087032,0.5947731534663714,0.6722955670771404,0.7209506409995146,0.7222413438656523,0.7032548538944472,0.7262130569941894,0.744486026019636,0.6849391700499365,0.5914603218754466,0.4961866813987641,0.4004892935320903,0.30444979401754935,0.2076939380253131,0.1417565271797152,0.19306248593618414,0.29119661823119924,0.38783373576417457,0.489464290297317,0.5889196978361484,0.6860466161299101,0.7870912303747188,0.8462150844134808,0.7936559402629428,0.7354574934586879,0.6878780735940875,0.6276740466808279,0.5675711960645073,0.5640018573454997,0.6198263415911944,0.6540357739377285,0.6562252932134014,0.649412203658887,0.6697812039899205,0.6704470791709725,0.5932772987459045,0.4987178446218381,0.4026612294595475,0.30579707595063954,0.20870770109093617,0.11099122303371312,0.05772412760351264,0.12453657528200213,0.22097916436082643,0.3202604007144515,0.42208219749315656,0.519177027753448,0.6186733400526208,0.720125234234775,0.7817018500138728,0.732079290243848,0.681821734083655,0.6337416969463934,0.5772470282705231,0.5567742437750143,0.6013557533389129,0.6570992365111306,0.6718107698973923,0.6711966873555235,0.6775859488510187,0.7054898112430377,0.6745449407839132,0.581116319113441,0.4806543720338039,0.3848408675856878,0.2890757569164083,0.19154724688860025,0.0993057448303204,0.06955419810090946,0.1477740948941545,0.24836523836665592,0.34471120161679103,0.4454592546077092,0.5466665632173269,0.6429736198855704,0.7410562478595644,0.7745897121843663,0.7253698113598854,0.6815957431470485,0.6288054731355699,0.5858596693450835,0.6055915653638448,0.6587033356342507,0.6915928661781303,0.7066385644780577,0.6978238506110583,0.7067571193186775,0.7031782535309834,0.6262087821763058,0.5322709317059522,0.4349004622621999,0.3379717866378955,0.24208490275108574,0.14671953709828311,0.06514226343444773,0.09064172584199381,0.18649296248664926,0.28636740938469873,0.3831376515193632,0.484868451663363,0.5854746307669567,0.6818130290692426,0.7700678058927888,0.7575316400490093,0.7042532811838844,0.6579940108899365,0.602313437053104,0.5666452204181998,0.590482561075274,0.5995772724363886,0.6465219233872728,0.6972473813436837,0.7427954702275175,0.8122464575445243,0.8963468245971227,0.9045355170687359,0.8205145117688672,0.7204159872047182,0.6239727523206884,0.5234961729217473,0.42717577885893454,0.41822046176559313,0.5014700456918322,0.5979056826771842,0.6883552581444743,0.7460575853117384,0.7359823211710994,0.7296883268364314,0.7349700358492723,0.7191272967902949,0.6890441355622217,0.6355876572969392,0.621724207708706,0.6729257631551149,0.7197432827782739,0.7677408600975164,0.8430990366214619,0.9127099338839417,0.8788730384178112,0.7908436148766946,0.6986797378006102,0.6015545066424393,0.49962978948275816,0.4014414494095515,0.38400116048473887,0.47175994103573315,0.5686636218703374,0.6621040870882915,0.7304368456020229,0.7287263782250151,0.7046588164673266,0.7062040092813135,0.7000192166474519,0.686689971416168,0.631579302725455,0.5938128259057713,0.6325092438007371,0.6858266399064816,0.731449394396017,0.7979731628539015,0.8878812221868795,0.9332982120102922,0.8698032542784291,0.7842238236294305,0.6848560767263119,0.5879465979174436,0.48833089594853907,0.4043259056617259,0.437460528315444,0.5356995011996206,0.6325401257030854,0.7082946980835092,0.7157153595822878,0.6897024718928431,0.687547784557635,0.69244427671951,0.6662596434455883,0.6085986302848434,0.6070268395820828,0.6682049790712974,0.7254717608107359,0.772910007623391,0.8374391747890082,0.9249263841265538,1.0,0.9767081845215291,0.8849863269212634,0.7838770918287616,0.6869287674972777,0.5872508672502843,0.4903003405454427,0.482183228127669,0.5723518364416591,0.6681371315624955,0.7526998727330154,0.7790596926266378,0.7538381809637424,0.7489738435180486,0.7552350301224364,0.746678785838631,0.6865838649836715,0.6113759150183413,0.5569155355092195,0.5849764555755355,0.6430992827306405,0.6925463301786046,0.7529516075795786,0.8335547712734628,0.9147514513773005,0.9161703906317538,0.8250853636697777,0.7233995165717382,0.6265851779499088,0.5267174944889021,0.42483204636825556,0.3511172655528574,0.40143889230062046,0.4975061196945416,0.5917601254139657,0.6754683778221768,0.6997767012964211,0.6735053562556972,0.6588580483888842,HB
0.7859204443556944,0.7944916089305754,0.7821293982960545,0.7667509371628893,0.7838239368860049,0.8116964006696133,0.7957612777045977,0.7350987184631279,0.6685624488825561,0.6019679676439006,0.5356018339385086,0.47231822352114783,0.40741206465424906,0.34094767338596305,0.2771185850848285,0.21288720559080965,0.15232918561520872,0.14883763965650668,0.20546745923275717,0.270079869077328,0.33663963015495746,0.403234232535071,0.4698246766835753,0.5355676645454994,0.5983917314432264,0.6643636698393643,0.7309562785707888,0.7971295508621873,0.8389285583239176,0.8190649283575009,0.8035263669213479,0.796698292751033,0.8029523031726228,0.7802368922784075,0.7878152196111247,0.7963422424394544,0.7779894267564706,0.7610960254327743,0.7769317520319022,0.8035105227354059,0.7942367154152189,0.7387332607096563,0.6745371154975787,0.6188791828004512,0.5553034680542971,0.48888275118169877,0.42530355838359224,0.3607542228433152,0.29419947075315994,0.2276099082515794,0.1632518907639222,0.14125428052307473,0.1918661035351127,0.255461115259448,0.32193692573337357,0.3885315281134877,0.4551261304936012,0.5217202614537724,0.5879736942446171,0.6510147191020128,0.716266370143902,0.7828481622027091,0.8486842453372412,0.8817600501421359,0.8414004780963535,0.8015121451430053,0.7810661678757206,0.7772256792019189,0.7718498044046544,0.7427153612551567,0.7558130557766382,0.764234482181408,0.7430333125028428,0.7314806667579208,0.7599948179264371,0.7951377577507727,0.7791770491709012,0.720261679601485,0.6544122259513636,0.5914149276400977,0.5260955143876085,0.45951424445740296,0.3935442632229517,0.33072079649300207,0.2649752562151394,0.198497338902569,0.13470884360673055,0.07054159562250054,0.017358796086047165,0.03955921352563331,0.10175530286545056,0.1657861146430691,0.23229984961691214,0.29889445199702624,0.3654890543771404,0.43208365675725335,0.4986779237604072,0.5649761114926979,0.6280887493788196,0.6932269152809629,0.7598057027929713,0.8263234622910532,0.8809574547796859,0.8638000058142584,0.8270141049603702,0.8083306229261495,0.8099236343932963,0.8041711238403849,0.7906776237963044,0.8114473628350932,0.8087913829715063,0.7812157779936694,0.7709972622236168,0.8010915105290501,0.8285541096309572,0.7983210510029491,0.7369242463300737,0.6718251221618077,0.6061940411900321,0.5433481300041155,0.47730219739240964,0.4107174030806394,0.3452464522146838,0.28295307917522067,0.22517523488568836,0.17168096605809546,0.11460418530522334,0.05264850054405629,0.0,0.02055665142596691,0.08490576239816525,0.1514914801690605,0.21715312513509621,0.2799963974017124,0.34603116452790517,0.4126241950228043,0.4792187974029183,0.5458133997830324,0.6123941204810704,0.6775899394693382,0.7406666675030252,0.8068446675735346,0.8604539562709286,0.849612806054367,0.824979421607688,0.8072396878390449,0.7927356636297849,0.7828088736167196,0.7929375236888971,0.7827048435492118,0.7642427118246017,0.7622380862024295,0.7927116517196436,0.8224572537911928,0.846980576758168,0.8364492271710832,0.8088224923465691,0.7859810313763199,0.7963387670300722,0.8112805631114145,0.8056210591138894,0.8088134171732322,0.8214357545004008,0.8356554748947727,0.8586413545336629,0.900953406337888,0.9545432813072567,0.9640660566317227,0.9088335180410793,0.8426108320362717,0.7777624857526858,0.7144335737849924,0.6480526960464144,0.5814581915950227,0.5148635892149097,0.4485884980616678,0.40583622503353617,0.4479311134828581,0.5141797188297591,0.5799167568568655,0.6427396769256488,0.7087050768696,0.7739110770647959,0.8342029177692883,0.8590555584200391,0.8439518105553249,0.812133157399711,0.7991058537186975,0.8214540942439066,0.8338459184409942,0.8167772744068127,0.8297533264109198,0.8323103077130793,0.8244694763465894,0.8392006263061096,0.8786674427814894,0.9348258917445149,0.985997917365536,1.0,0.9490547903091926,0.8837806586087414,0.8171956708923461,0.7506035192472501,0.6864949868331863,0.6731950913779547,0.7313994796776635,0.7926021804497528,0.8255076885393633,0.8114344645345467,0.7728961973016718,0.7554167335151166,0.7754611495635039,0.7882218101398368,0.7722530842820685,0.7788191671235285,0.8002652754412246,0.7956726560888602,0.810979417586119,0.8417020052216216,0.8969478734352331,0.9538463393711025,0.9587797315221711,0.9036544337548202,0.8381694644906585,0.7736201863697435,0.7166256888980782,0.7258364462194284,0.7885846704250573,0.8298316499923548,0.8231971192971513,0.7959276477564963,0.7848870693857729,0.8044240355734562,0.8145378485877172,0.8034366724324867,0.8183184059608738,0.8194916331769816,0.8223403238774161,0.8435473080127299,0.8912364233724838,0.9410761648043418,0.9246052928318093,0.8642099242226561,0.7979827447196368,0.7317003229315278,0.6871694262366096,0.7234602025826635,0.7867560984650969,0.8350704965797368,0.8352352005852539,0.8116622460355861,0.7904425219781362,0.8018822177061495,0.8120240798144209,0.8038307114436487,HB
0.22402892996357782,0.2293723766255773,0.21807967748996826,0.17475972177725896,0.13331466881293275,0.11840525365653498,0.0733114110208406,0.0362042846645203,0.0,0.04877083255960013,0.11253619766575618,0.14100178938125474,0.18121790946776506,0.1999104049684053,0.20878135517843677,0.2129854748146114,0.16598538814083041,0.20158874004553717,0.2852202983987957,0.368915135127051,0.4599255557376234,0.5465895538604302,0.6314012766031032,0.7194124471394916,0.7674430610574234,0.7085888092853445,0.62633040407472,0.5367316093504846,0.44708998854566206,0.36612129869060595,0.2936289172947706,0.2378047202105109,0.2113671799643917,0.2047487408910984,0.1870604536588507,0.1896632487375547,0.23182351823807723,0.2970297387811076,0.3626132887907072,0.4262314220185057,0.48091468039586904,0.47131223985787396,0.4148396656170841,0.36469388580721485,0.32697020454217096,0.3230456739504095,0.31720284615049077,0.3036631449609748,0.29220670971069795,0.27616971213611996,0.22910081747592348,0.1857859196904157,0.19700459444690432,0.21883817302002462,0.24418009304308685,0.24924567209511728,0.2803972674504651,0.3439330648988719,0.32723453420092397,0.3098461060892137,0.3784029373212332,0.46179190124500225,0.5454682687152206,0.6129384326235006,0.599740375744499,0.5184639915342524,0.4380169482303995,0.3633273981112637,0.30250651234163994,0.27271386141209786,0.26302774482401725,0.24701658516771507,0.26740999179444236,0.316510577224387,0.37264781588734563,0.4306732657409802,0.4543462786855115,0.4061780289481087,0.3514015734183886,0.30875717992709273,0.2923900912092128,0.29178246907990824,0.2908384507484618,0.281067316378909,0.2561670847601305,0.2102753722690336,0.1846757433348678,0.21697931510007074,0.24632747765795004,0.26310762364976625,0.26122711412362865,0.2948032778475673,0.26875351018007754,0.24788644087205491,0.31385911255306187,0.3991369933338962,0.4905261993238119,0.5800067250496761,0.6623715325780626,0.7194678927284552,0.6690955580137865,0.5828542942379207,0.50072824109287,0.4203328789702929,0.3398248499121017,0.2695444027851228,0.21700485754421717,0.18877128495094153,0.16424238141295255,0.14825669080481774,0.16041189622948493,0.20907429062561067,0.2653844727075687,0.3166492467461388,0.3045243206643473,0.252585885666996,0.20255889665416338,0.17540392430623042,0.17333833034044677,0.1836204875410954,0.18822726027057346,0.18730132097593244,0.1743915465281678,0.13528708110342347,0.09390659722837325,0.09671985485891654,0.11310238846370724,0.14765464596810607,0.1629007953135555,0.18963140053683003,0.19972542476583977,0.17960784237532446,0.15437512479049342,0.15569940162778928,0.19216362633263206,0.22116341277314389,0.22983669432105702,0.2279814848904227,0.22396245901482104,0.2138631670768003,0.2293303510570368,0.2744750994082721,0.3280055043906829,0.3627718476779005,0.3389102779115707,0.28431817203084075,0.22974899897069379,0.19187400151844103,0.20053261722707516,0.22259667429710084,0.24935217675557841,0.3075300180415208,0.3878596555078888,0.4676233254726949,0.5393678175045469,0.6126886947161163,0.6987374727832403,0.7710210401162929,0.8419737886985745,0.86050977177311,0.7910553470097261,0.7056201318558297,0.6232592010193436,0.5417167109720455,0.454061186423383,0.37670458733991397,0.3431000060671292,0.3004423817023296,0.3004706290676473,0.3001434913853491,0.27362247079270485,0.25026926285278184,0.2658723305590549,0.3040898396729017,0.31872434572773023,0.3203962355354446,0.320453730063446,0.3270755266675831,0.3599458630143071,0.4125750735199649,0.47129493875145134,0.5045342375258042,0.4778720036682189,0.4246226657740968,0.3661625257485459,0.3098244734400528,0.2846042627841592,0.2961302857911745,0.30878395354953825,0.354460293928726,0.42536759007934877,0.5057866144046985,0.5875591164704559,0.6670866005614948,0.7312002160620337,0.7685791378467417,0.716930428215037,0.6343353327219872,0.5574466359074359,0.4757814080562006,0.4229135914415354,0.37184656811991235,0.30893305277508576,0.28462026634459714,0.26880146737572774,0.24733909658538122,0.2475286672801127,0.28861669239237764,0.31882506116719433,0.3298216356281636,0.3406925517688817,0.35544995473160035,0.36095859008459397,0.3753784497820758,0.42352448810935495,0.48189407847911503,0.5360521902917068,0.5430986677252283,0.4936998380251463,0.43431735542829286,0.3666973360743413,0.2976879342444372,0.24470275223359073,0.2372596928790418,0.24935384580335662,0.2749657653404447,0.33660790110584604,0.41516838975878856,0.49682799390734256,0.5789923654851445,0.6671187720631695,0.7488436998829078,0.8297356738698041,0.9148988629242367,0.9909895364357826,1.0000000000000002,0.9341029843169044,0.8632952673389502,0.7928550151762586,0.7168452214993513,0.6292234262989307,0.5458615815242169,0.4551740578113692,0.3706355668302488,0.2970075471340268,0.2749914457719509,0.24872291716615513,0.24345723324833202,0.20963956447948373,0.176118146720877,0.1910152746075855,0.23309829500939028,0.2626197242132329,0.2668814455670361,0.2649146837149814,HB
0.30795529202704436,0.3474213325721029,0.3492291356655905,0.3437054264541633,0.31376226017999703,0.33250312463685977,0.3810650178049619,0.4173954163993206,0.4276241528379087,0.43598243804768494,0.4508775593290915,0.4313053439259403,0.36271936938573507,0.29362061646720455,0.217038717171599,0.13993222625983442,0.06173548633392706,0.0,0.022982156000938392,0.09908998376033623,0.17644093229593744,0.25575312708797143,0.33360724699925587,0.41246496733305255,0.4925131200058965,0.5633819011953758,0.6391381521667667,0.7172444723768812,0.7394022592867378,0.6742671935357907,0.5980931458869845,0.5235909909666459,0.45777942407994093,0.415773478924319,0.39106371499140985,0.37135746555097987,0.38242888733433017,0.4079450469206058,0.43449022988199865,0.4420454516613009,0.45907704288416246,0.46288366565689304,0.40802053182717585,0.33601145066505306,0.26458169867415954,0.18798686646799795,0.1091519350070555,0.03870732948979849,0.03592019620677789,0.10397426993334219,0.18117798391404943,0.25986818142901763,0.3376962929879614,0.4182933712454758,0.49514628049907,0.5668374692463138,0.6442200695676872,0.7212475516702324,0.7900252707165991,0.7687573446203637,0.694709272049288,0.6193349971439732,0.5464793625812627,0.48170695874049846,0.43226529949697506,0.402599046667032,0.3791956534096615,0.37584604641526237,0.4001429659161568,0.42271509613963837,0.4358615076851668,0.44493071916893384,0.46140303633673435,0.4417584872557015,0.3722775695450666,0.29508099139385074,0.21620349343697914,0.13852867916594042,0.06367537069937995,0.03793804555899932,0.09875370669136346,0.17546349011297163,0.25255157204209205,0.33036761403575704,0.39728959535854297,0.4566105491019194,0.5233993104110588,0.5924901852275302,0.6715778193426669,0.7462261888328734,0.7455002754443492,0.6729802876860009,0.5929817565966642,0.5188553479775955,0.4563899007644319,0.4169153078540205,0.3904934867857866,0.36965702994570665,0.382776230880807,0.4090085698899723,0.43217026777582906,0.433837834060872,0.4494034368589734,0.45929845912180384,0.4169833124258648,0.34189246466613515,0.2643258743604387,0.18640458426414058,0.11319048026636086,0.04460633869244579,0.02246814379066253,0.08539791279094061,0.15638198799412523,0.22928626045871242,0.30656767163234894,0.38572975927149517,0.4657888584716445,0.5382933394505021,0.6125996810165737,0.6929138677849991,0.7524620286988333,0.7153325170363918,0.6394190509739281,0.5640621607935481,0.4917414492619218,0.43457899706822506,0.40322445696453496,0.4139499493155833,0.4514648186005121,0.5130847170331299,0.5865018340644497,0.6624420737492072,0.7389358943097495,0.8154452598133894,0.8915042803064546,0.9672707807455536,1.0000000000000002,0.9439159044778251,0.8827343820071565,0.8239448707482129,0.7507831851707105,0.6703705213618354,0.5918114734913869,0.5136658455915635,0.4328357383279812,0.353879070740069,0.2761414154808209,0.20331636164207273,0.20800220163494848,0.2804780441897587,0.36092033109817684,0.4368874761101584,0.47760411526131236,0.4687431202296291,0.4552281436746573,0.45722933957257433,0.442737394384709,0.41576052658212564,0.39405936283262494,0.4002953895237575,0.4245497627291028,0.45978981695703985,0.5199012509446568,0.5935600607551061,0.6697554421217831,0.7459999220163089,0.8217084315871539,0.8992101445390053,0.9687368491002986,0.9548353174406203,0.8813639693685091,0.8041402044293005,0.7248513239927079,0.6460245447108239,0.5681429495889594,0.4873779111078373,0.40870292680616166,0.33074185520483584,0.25299787485183106,0.2087497170584665,0.26391917350450406,0.34064362551557853,0.408998084245143,0.47060979504569217,0.4837331405039286,0.46783303751075417,0.4548462361079328,0.4438826102740409,0.42136132389339204,0.39924074963841133,0.4052540084848802,0.4301794064754641,0.4683156384912675,0.5313037334301727,0.6046177900676835,0.6832918862547421,0.7619127563278003,0.8385333874310814,0.9088499451004473,0.9506237992874287,0.9043991843983612,0.8268737589472499,0.7473785315976704,0.6700638917375803,0.5904341269132853,0.5188060083016819,0.4435647702004131,0.36283146699182384,0.28184909818416976,0.20206339136424717,0.15886195012377075,0.21361860519034986,0.2904328094872563,0.36808327457055307,0.4419192564736672,0.4866078806117515,0.4805946819182741,0.4622923015079273,0.45726155439833555,0.43869881816590955,0.4139230301774555,0.39111266471048906,0.40604122490154365,0.4353128449092158,0.477458408718279,0.5440499632361142,0.6228209137275937,0.6998877024660037,0.7771978293738933,0.8535102742540333,0.9303923139845698,0.991087162291145,0.9634530074487837,0.8875170702184145,0.8085611827055177,0.7308917744466328,0.6501392244066839,0.5713806606976188,0.49800762958968775,0.41868917869061056,0.3415855966799402,0.26191993448075385,0.1939860534412821,0.20868631861343284,0.2837152725817295,0.3608917910410813,0.4342919484177405,0.47842664301327814,0.4729428450696124,0.4554991154374615,0.4497982792445549,0.4290236676169808,0.3997527038161564,0.3814562010515053,0.3943712920803583,HB
0.6565374415692317,0.6520440954613617,0.6776660604668497,0.7077315424011345,0.679443542888,0.6134672240207456,0.5366692246701555,0.45602809870311456,0.37271483108254566,0.29152375288140575,0.20629487663526402,0.12517699583611552,0.0494054513218537,0.04949833990966235,0.12780089676052298,0.21186096592926573,0.2929906603493607,0.3785990171299757,0.46454213496130814,0.547153015808825,0.629531786726132,0.7154506746266266,0.8007464580049907,0.8760381541033114,0.8777089238237724,0.8072119544496615,0.7418881977176167,0.6985161570621153,0.6639634601741656,0.6189772142993201,0.5806272898097186,0.5873294160223824,0.627165951345744,0.6669351211010955,0.6710775736615798,0.6652254081586909,0.67844557045857,0.7098319263066281,0.7089519331874518,0.6423648206270877,0.5619804588126561,0.479984442609921,0.3978378512949192,0.3144586241899556,0.2329316705781057,0.149465397028541,0.0711149786782983,0.044716782774719244,0.10891069454636237,0.1938411458409579,0.27832974110740716,0.3592294045741179,0.4446635895463049,0.5307030133157099,0.6167437040919804,0.7027843722418557,0.788378146541986,0.8457833498734918,0.8023186893561437,0.7354159735256917,0.6914904277121717,0.6556904885369598,0.609259271391645,0.5688050983907024,0.5678344043242282,0.6053366256978289,0.6450497271455721,0.6539220473085178,0.6481361218812013,0.6658989786207264,0.7004673858641658,0.6979212352574963,0.6315818014335354,0.5520362716739885,0.4717138594448812,0.3876501446754398,0.30690555777884,0.22835295328049598,0.1504545876194271,0.06523501980656787,0.0,0.02797725180032684,0.10960077190624873,0.1914989204141384,0.2745898126087205,0.36057004377837165,0.44618374122311033,0.5273260085949926,0.6114035732025555,0.6974193490520423,0.7822936167479252,0.8584789826425906,0.8660623034282294,0.7936276373074448,0.7301979729538167,0.6910264516869277,0.6542557695824168,0.6100363470916609,0.5837758851857612,0.603848741507485,0.6450511163765228,0.672291487259323,0.6731598251639114,0.6765681281149131,0.7018382527584098,0.7230195333334942,0.6858000914945855,0.6094215117935727,0.5289359014910974,0.4460916471481646,0.3645915425414433,0.28159539317861426,0.19984758015965098,0.11611206977697164,0.03740024124080665,0.01167211131207524,0.0791054391122773,0.16132762847736482,0.24717678351463956,0.33015659353689786,0.4121840111698176,0.4980535271320182,0.5830183295466295,0.6637780589050551,0.7488692071761719,0.8331519780837385,0.8781126908659286,0.8247711126928047,0.7529421816995828,0.7051560958310362,0.6723790797709007,0.629297206804767,0.5859106813767984,0.5811372988676916,0.6183605163881892,0.6594580418885602,0.6726214991769331,0.6701905138974625,0.6817563092602926,0.6932443718073246,0.6944633929102103,0.6736565168277443,0.6300021259714367,0.604898057725651,0.635288246526628,0.6807724924165225,0.7157154665385793,0.7562831175884573,0.8205605689236374,0.8876925110023529,0.9620884157998285,0.9848288285952024,0.9206962093946546,0.8381805615024941,0.7523251324704187,0.6697469069087206,0.5873363612643784,0.5014190486851996,0.41680949247199295,0.35119191235227576,0.3836161280789364,0.4681069089660327,0.5536654645058422,0.6342458309885951,0.7084860434051318,0.7473781569611698,0.7388817819455954,0.7081600830776168,0.6958859452569116,0.6984894388860584,0.6918532025526992,0.6537655258812086,0.6164877640547252,0.6220574094146957,0.6639566198583159,0.7024022571144807,0.740711512816867,0.8028531221117788,0.8772696741884557,0.9520352939194391,0.9939835990857492,0.9414793727160432,0.8601849371991274,0.7783130526890806,0.6925336842238604,0.6095480238894232,0.5275261482699024,0.44168250604611103,0.3649549293750217,0.37884196912662005,0.4565881476241809,0.5376510488528469,0.6210789907595368,0.6990875626683747,0.7356639846375111,0.7195250609206826,0.6851503915318112,0.6708730317497346,0.6774743108815994,0.6636871903414515,0.6239011674852805,0.5878362974778913,0.6021219296631254,0.6487643114239746,0.6901317595101691,0.7272478233549792,0.7846105097670776,0.8585761095147596,0.9350664909523366,0.9963513986014222,0.9735870188085013,0.903770701451046,0.8264850140366161,0.740754894973343,0.657971701173019,0.5757595497601885,0.4899050442341163,0.411610240125145,0.41529426072797926,0.49388568235310915,0.5744298066515238,0.6536272759479332,0.7214456931995002,0.7439466219324543,0.7207482900972951,0.692965285620272,0.6899339462680719,0.6963822136879628,0.6843976298332971,0.6420287712291591,0.6043412293683804,0.6141997639504279,0.6613093313683754,0.7002833660742077,0.7355370611942663,0.7943350233105045,0.8696439514680788,0.9451717551910471,1.0,0.9695096237410156,0.8878483246435284,0.8018372354154805,0.715896066395821,0.6333101572374581,0.5509073682974349,0.4661842101335345,0.4273619137133551,0.49193796735788375,0.5722342355825841,0.6518141044229578,0.7163827160197166,0.7336198375534201,0.7068501058330464,0.6774368356969779,0.6763466223636162,HB
0.3941663154148184,0.4085988244613642,0.37486410706488493,0.2984847142284436,0.2157692249663622,0.13126974599065344,0.11507147687857666,0.18664167499855522,0.26337263053662185,0.3312487680644546,0.4052532297908934,0.49179532851784546,0.5846027805393165,0.6783021020428245,0.7419224343984111,0.6869841848236019,0.6041786455105017,0.5237102401290644,0.4552065034064384,0.4134030236194818,0.3758642584629287,0.3441575919844516,0.31424298180402144,0.33423994082923414,0.3816493798307584,0.39478938051251655,0.3821797745467651,0.4044253999985076,0.41924320053277564,0.40801465569667805,0.33838865200231394,0.2504484502312615,0.16150010290427252,0.0936585962850407,0.12989301029575528,0.21622202537304658,0.30953223929105966,0.3997679258532304,0.4897365395800487,0.5836239842922931,0.6741379748729136,0.7075983614354312,0.6377473339412308,0.5531868233752474,0.48130146471084656,0.43064325752242294,0.3907923240658927,0.35614335943182784,0.32329077341108314,0.31899277866411124,0.36105220410173844,0.3809301007927882,0.3528423159409385,0.36786333501978297,0.39343338121246096,0.39603091493824405,0.3348442787409297,0.2458541831355986,0.15622586085246748,0.0629454225057331,0.0,0.04554612008915937,0.13369098377972366,0.22698223435333464,0.315455494084406,0.4075137081889805,0.5015367744232985,0.5954469706255806,0.6793336002299869,0.6758606289967918,0.594348251053196,0.5115076965877835,0.44430159597950303,0.4010735646643072,0.35995607119421014,0.31859327819531724,0.28788303234587687,0.30403543812103007,0.35551325773484266,0.3867420440958177,0.3737953387766074,0.3890532708885174,0.4010918637424764,0.3958028058108912,0.33775984487682564,0.25162842287749065,0.16254007460227682,0.11339417762819404,0.17076522884377143,0.2623532316378808,0.3535882189648448,0.4426407575899306,0.5363021427349927,0.6192040342315538,0.6069043566296132,0.5304363712443362,0.4586443830693573,0.4154677745313772,0.3867252487212499,0.35916243521404134,0.3338471378995823,0.3537810528676185,0.39759349382037634,0.3975809571436689,0.3797880784824327,0.40058370123412324,0.41794456066079244,0.3970246797914253,0.32153167256215387,0.22975727169617077,0.14082729945839578,0.05156114120802846,0.002778328044853229,0.0620596896330281,0.15343031130220253,0.24158801125689144,0.33444299532053157,0.4261421628616643,0.5080330492825479,0.5841431953054023,0.6560249939777555,0.6324875431823028,0.5503997886677764,0.47409679821897954,0.41798327071167274,0.38769090844217324,0.36116408245282183,0.3307269265368503,0.3279176960072029,0.3717685374261829,0.41735565963945864,0.40009256093417334,0.39009919946665306,0.4164704902798172,0.4486155672203972,0.47541215346201693,0.5293516884458355,0.6098849550076754,0.694726781180406,0.7814890858279852,0.8689599444572381,0.9294023412816502,0.8833056098407751,0.7964815101866499,0.703457058831315,0.6094202481646095,0.5153802290184218,0.42134020987223597,0.3277307144211853,0.26710767049723294,0.32579065939627017,0.4092390850601636,0.4586132706858318,0.4732181617193111,0.45841179267840804,0.43749631114228615,0.4580356378250251,0.4675503270712117,0.4309982597569325,0.3983162619601409,0.4132463112985837,0.44978928840574117,0.4783315985073736,0.5261851454392367,0.6001362161363456,0.6874644104366893,0.776311894417557,0.8672445915868302,0.9488078788663522,0.9567332689324582,0.8787849005660954,0.7862238915706968,0.6978824537262053,0.6055895084168587,0.51162318752279,0.4280065253933706,0.4295353718612088,0.457265584440785,0.4575768472070191,0.4495676774562717,0.4369465300153238,0.44397395627649405,0.40948096873754924,0.3609019686737752,0.3616558445864465,0.3996157369672285,0.4424651300108914,0.48046963677673526,0.5368380984313296,0.6179190590775928,0.7052061599689669,0.7972204494927987,0.8815339387764342,0.908844982829326,0.8377158549605846,0.7485192099085697,0.6580260708793263,0.5640721212155685,0.4706676655898522,0.3851994876828898,0.3645343045585251,0.43174053100414767,0.46079357841392155,0.4488831265185852,0.42532780315128915,0.4320555985298936,0.4480789526983876,0.41127783902301707,0.37881350939237,0.40178583983512717,0.44073115374066407,0.4793438112139644,0.5218551775188486,0.5927335190894544,0.6787169984989742,0.7634855086598628,0.8504244670815274,0.9364765962710825,0.9844601019098119,0.9276843884071636,0.8357998068488169,0.7457024384328411,0.6556059388632488,0.5616841978365953,0.46764649518949086,0.376886750615406,0.3585431096220647,0.43127941975023554,0.47133397732114923,0.4700097650322853,0.450869528076011,0.4510973617996731,0.45545932502992825,0.4134031273848894,0.3768204737211446,0.39641638256733847,0.43412815243712466,0.4698900172976589,0.5151303428469066,0.5900525259972756,0.6719721851782391,0.7606696829178999,0.849556972729922,0.9387816496271125,0.9999999999999999,0.9553073409110423,0.8657446523649553,0.7747569676677765,0.6855422171531943,0.591802009765063,0.500751108587329,0.43012767017543696,0.44817296480057245,0.46328660238157593,0.44935046787507205,HB
0.37493098165860056,0.30109313153598627,0.2220146656970849,0.17682182082726838,0.23018488017188365,0.3101457278567269,0.3896771146548213,0.4491782534726904,0.49367424366605234,0.5702473427661181,0.6517648897014641,0.7325391784217348,0.8106768972369458,0.8173529205635102,0.7452483461864958,0.667311000850972,0.5923397708799722,0.5343699323992386,0.4819679732393732,0.4452178274718132,0.45908913775569987,0.5051860261977246,0.5025138883320246,0.43489806331594655,0.354644840652013,0.2745016701152188,0.1937151317099609,0.11322144532355105,0.03451792817084068,0.0,0.06066674616055781,0.14237851203885626,0.22484265411808718,0.3050750449007138,0.38780722773160364,0.470245298945212,0.5504899732495334,0.6332467780299258,0.7152273554892719,0.7786348875541205,0.7475712781382637,0.6707425097907291,0.5978816201170976,0.553526228130214,0.5115898624891735,0.4632137589900936,0.4622367216556648,0.5077182258868365,0.5341003280804064,0.5496194103794931,0.5219486707371948,0.44803289892696035,0.3688125344019412,0.28909892315110236,0.21506761831752147,0.2123108964152735,0.285424810521219,0.3661476580368029,0.4432917809718357,0.521145252182279,0.6013351358190147,0.6842066731109055,0.7656518500346268,0.8366163809738034,0.8225100058309536,0.7468247879706464,0.6680252347783451,0.5917304020096308,0.53514600647302,0.49270621942419274,0.45987106881410506,0.4772011465242358,0.5168090283002922,0.5341736351890332,0.5360334282937893,0.5409541931763524,0.5318782256765475,0.466280225161884,0.38677022567986047,0.3067562127022321,0.22648385832639661,0.16614145324286572,0.2007799507330993,0.279640327494456,0.36109303686114597,0.4437341578696435,0.5239542501346175,0.60649914506382,0.6894621346128869,0.7698912642496456,0.8489952222282591,0.8678623541696253,0.798599871453707,0.7203325846866573,0.648911157668943,0.5778520416929906,0.5311158317628999,0.4910374529624369,0.4614616148076561,0.4873479547847082,0.5171901174741265,0.5121277359155707,0.5203640210207818,0.5250772925776619,0.4648369203870601,0.3880912974059337,0.3182641374143458,0.2423247205621733,0.18177909229663874,0.21496415068648156,0.2931210815380156,0.3751099290486482,0.45833440168727874,0.5415763879070956,0.6247572137138087,0.7060609844878201,0.7868933903334079,0.8484933694597281,0.8098425970927494,0.7317763639467854,0.653740375616602,0.5798830198096705,0.5239537335021744,0.4769872742222046,0.4433060298928381,0.466799269442805,0.5138364966987281,0.5253338372746994,0.5290467107571426,0.5488338374409212,0.5109414136280628,0.43414988684711514,0.3538138229693862,0.2749864019780286,0.24153465717391942,0.30549536643182895,0.38562621577384376,0.46792730965690726,0.5417434270502697,0.567490441454455,0.5438695758733483,0.5440726434500129,0.5266762480248715,0.4807068226887297,0.46814765335421854,0.5109362846403758,0.5580319852333784,0.6268519797139409,0.7045081137745068,0.782964716194245,0.8618055231820334,0.9391215666171293,0.9716705047823191,0.9099867788959046,0.8286919363002487,0.7477812246479982,0.6663684295241739,0.5839192955240886,0.5036908548350043,0.42106203303790074,0.3523564718387158,0.3788511636321505,0.4556002533299954,0.5265328856816678,0.5491930892748755,0.5332342976292865,0.5378368573003534,0.5204593536022286,0.48142969418709697,0.4944665634338263,0.5370632548883223,0.583717313387389,0.6538037213032004,0.7340935919714158,0.8136572071916903,0.8928454926789244,0.9689545610932251,0.9914632934800836,0.9258021539944792,0.8443576696027166,0.7638879155900644,0.6819165783328722,0.5986930420276901,0.5154533037028268,0.43471135501997565,0.41177849086207025,0.47957576108873706,0.5496848412061526,0.5665059045961163,0.5599646608564908,0.5556848060158284,0.540915520553706,0.505483334488283,0.4806873825324656,0.513057192056988,0.5557817070179965,0.617986703114572,0.6939468278222181,0.772564320034054,0.853949640479678,0.9325969161835144,0.9796711994554932,0.9305794112903338,0.8504075206062491,0.7696583957527781,0.6866813506912299,0.6057645315884292,0.524896584994367,0.4742970131324124,0.5231105775659626,0.5693448002882453,0.5588502596246165,0.53995106836382,0.5022627442044154,0.48134235467858005,0.5228304594826354,0.5669590336345274,0.611998134136345,0.6825197286255564,0.7627555470035787,0.8414862275821262,0.9104974858553396,0.9003547467909419,0.8241380959325115,0.7435310010890379,0.6604960767752863,0.5786103899221477,0.4980544520362888,0.4150268181954632,0.33180442714926284,0.2552461007573068,0.2587564134307653,0.33534455083382925,0.4154595822856217,0.49371037883418784,0.5487802129094892,0.5254288350824161,0.47823713988554234,0.480430623110741,0.5318144188853509,0.5784232329981356,0.6447212086854979,0.7221092502276336,0.8028827072518208,0.8828439467261746,0.9606430517731204,1.0,0.9433528339731085,0.8635173696078147,0.7812480603306029,0.7010345925745742,0.6184258305478978,0.5367866309457512,0.4964329035696505,0.5459702274047964,HB
0.2211705125503567,0.21921771524524059,0.1684252630443508,0.15714352694965505,0.12721326938023547,0.09699560253569062,0.046963786334276225,0.040070902899613126,0.11909627933825528,0.18107454652599575,0.17967412218949552,0.09929720829101152,0.04556881953844649,0.11839525044671384,0.23065366610704596,0.3385516699641653,0.44850561156823865,0.5565746899837907,0.6647087627071027,0.770919189676289,0.8635673771198631,0.8439440642641434,0.747138550150825,0.6395898498533994,0.5340508809014264,0.4299788406955751,0.33358554719473843,0.2526110733644831,0.19261430016368375,0.16116758441745893,0.10281045303368175,0.03819761284504497,0.021492860707653216,0.07930079396453649,0.14635446571823585,0.17102532186415464,0.12498817941131035,0.11644344420143793,0.138063457275299,0.1542359098843593,0.09243024515515907,0.007867164942840565,0.029260194597771738,0.13227008124778195,0.2456683367160286,0.3557315272571191,0.4636239298416107,0.5723740551086425,0.6807462264631763,0.7872638642641689,0.8694488674113252,0.8313318492273014,0.7315550677175611,0.6234900928470437,0.5163565587833605,0.4139632579637169,0.31397722933912053,0.22328677980395262,0.1709916566559735,0.14764236350832616,0.09437950136969553,0.049682655017600164,0.07519117795370844,0.14811890131414307,0.2180268974010715,0.24605195076896313,0.20419067343057895,0.20325272043722653,0.23512871629255017,0.22447757298769,0.13933665944094575,0.07377315849046417,0.13313815811398033,0.24329523066624859,0.3569373349490019,0.4679165773865457,0.575047700382282,0.6832278103557166,0.7911592507697529,0.8966742824374507,0.9587633166676817,0.8932373516285761,0.7934270359905771,0.68571370809273,0.5776860613880772,0.4751351705053981,0.3742767560070619,0.28257704120425275,0.22551736150717128,0.18911430661016548,0.1303172325634121,0.0689092673323668,0.051237085018825956,0.11439519665075282,0.18435174434147905,0.2178829480446416,0.1783602453234494,0.15662317294344885,0.17924453800609874,0.18999449311155647,0.12205239443862315,0.04805157662086956,0.09162975679277041,0.20017225159919727,0.31376958610051076,0.42379421844161436,0.531348916666573,0.6377320727257751,0.7419382712040474,0.842461058373519,0.845923106535766,0.7553773381184663,0.6493397472290583,0.5406210803241513,0.4389754734641693,0.3389318395321932,0.24781943128381578,0.19010921593915753,0.1589006430952018,0.10358243181766746,0.037849789408223256,0.0,0.04673261236875126,0.11912210906815557,0.17157582563935136,0.15103434879360056,0.1317284786443751,0.15710633885085445,0.16257211897424328,0.08700727626038973,0.016473512707396054,0.0685190948119041,0.178404959113996,0.2920214935316663,0.4022113640086553,0.5100387537230862,0.6060240029869004,0.5736621380190756,0.46956956473912537,0.3585388580148898,0.24966980588175836,0.18481824084560738,0.20631027944177038,0.18991947308766965,0.16838895717003077,0.19729777597304077,0.21317012941491487,0.1683361902870697,0.09420596079392851,0.04883936373854603,0.09081714168774724,0.1571589216403213,0.20389681015904992,0.23584618650084188,0.3153522617875535,0.4136518976667265,0.5151693220821445,0.6189597931577038,0.7211722155757703,0.8213624099867198,0.906288216206963,0.9020750130836603,0.8106709134902075,0.6987851866737929,0.5920805122441484,0.4845802209857948,0.376126935249127,0.2702426925975956,0.2220438840665495,0.22717658041306232,0.20753422961392487,0.2022065043559813,0.24761467604678566,0.2446817363783047,0.19590866512057126,0.12396764557000717,0.09807806847581935,0.15435124690448987,0.21414347697567004,0.25390224969389097,0.3105006225896716,0.40442489601895604,0.5045083395273169,0.6076019007177453,0.7117577067205292,0.8154727821077161,0.9163868188160191,1.0,0.9997078546146412,0.9059407372231041,0.7933387239176306,0.6863215507342866,0.5764443069809757,0.469738618753766,0.35905324295514274,0.2665822862803886,0.26730002868092084,0.2728203314877091,0.2441654629252472,0.25079389156843535,0.28422380765602595,0.25635064738840696,0.1916293448992057,0.11745524418409325,0.09764335357915499,0.1510769832614247,0.19411444451184878,0.22214334019928006,0.29842238152542966,0.39822480814176786,0.4991307380789791,0.6027463958407975,0.7073357567171983,0.8095681863090571,0.9014638322596507,0.9223257065996924,0.8445301611897928,0.7331891345286263,0.6242277920090937,0.5158078256291883,0.40884707068748805,0.2983923402906403,0.20504280200166902,0.19294510549741828,0.18008938486190162,0.15679030594218957,0.18435628225960565,0.21234231519562408,0.17366255645617024,0.10487094445233147,0.06537305120600201,0.11164529287246938,0.17429561301959917,0.21074785124712458,0.26370319898621153,0.35422327068922166,0.45459778866050127,0.5592901468992812,0.6566568624926017,0.7468359858024529,0.8467769985907108,0.924632241952724,0.9023150275398804,0.8056169325537965,0.6929997659957121,0.5847614586252485,0.47561709281036024,0.3686501699692346,0.2597581010829324,0.20924000314486202,0.22373218760362334,0.2110182548146422,0.21103948353879787,0.254993425360343,0.262613160073232,HB
0.6797863462891912,0.703600507949468,0.6772726706550393,0.6342591274342744,0.6005566733777199,0.5994761971257927,0.5849242274182346,0.5169002350055506,0.44592428718631616,0.37151735854755175,0.3001213302251381,0.22400969609928664,0.1446957077162693,0.0678481209841186,0.003653190325606681,0.029645544555540138,0.10764116565640255,0.18641369212480832,0.26381093228311603,0.3438968773989478,0.4241957456619222,0.5044586904991206,0.583014126062138,0.6605889565997407,0.7407254723987262,0.8183884476288757,0.8392919922286924,0.775780947876076,0.7054115548743225,0.6466108582246698,0.6037590218250088,0.5525671334795768,0.491244231639394,0.4424679162390769,0.46489458209556167,0.5252435715243331,0.5804958019245995,0.6105769833109665,0.614237223822531,0.6111309779650509,0.6254745544885952,0.5914181215201768,0.5173738069077789,0.4392351910929646,0.36178677232051026,0.2834726661784651,0.20634270115703587,0.1275152217475807,0.05158460725885525,0.016538976247897325,0.07642420654422347,0.15330953503773884,0.23251291569272417,0.3128013817893137,0.39300334114820146,0.4709137732654869,0.5490985646118721,0.6293332519834469,0.7094673142993204,0.7869235097832413,0.8504609265980515,0.8238216275283538,0.7533074383773126,0.6886203259637299,0.6410802522105267,0.5948186003031052,0.5395780204302519,0.478098657762547,0.4509729277251837,0.49532562715942163,0.5577553014812386,0.6069937023671313,0.6244754809714481,0.6204820159896817,0.6187071150048477,0.6219259339692567,0.5650972406923573,0.4891101601530432,0.41235304986599397,0.3334741975614949,0.25648090427067916,0.1769830465011308,0.09669679073858603,0.019807664020333987,0.0,0.05852531154094537,0.1361271877912835,0.2160345302755369,0.29315031692638027,0.37235041529948976,0.45263880573120097,0.5329376106637985,0.6130038362349907,0.690350252398552,0.7691922816192248,0.8479202128598685,0.879637560170878,0.8200497211673505,0.7458093906328032,0.6869970099450129,0.6433909982997829,0.5955873795369325,0.5339343750838934,0.4723108483023368,0.4475790485065979,0.49349412068321863,0.5577800294160838,0.6079947271662969,0.6239325925059305,0.6164344204274138,0.6215671075549066,0.6181333273332034,0.5553398086550118,0.479119893088621,0.4003028639349322,0.3200264677876201,0.23979827224479758,0.16167911928620762,0.08404093445786442,0.01911965276369504,0.038710613972766594,0.1151644547851006,0.19261562860258444,0.2713086181144181,0.3515790585397114,0.431877799351321,0.5119226387732618,0.589223661846941,0.6681304289011697,0.7484100477377826,0.8280036400636004,0.8733857295202755,0.8204636576812285,0.7464409057253982,0.6847895799063708,0.6407896852965187,0.5912435911940079,0.5301774057724375,0.4730332440025209,0.46736219146083413,0.5226176920794422,0.5487376564459051,0.5013229299339601,0.4957102647467101,0.5527447751217223,0.6109718157570151,0.6581382269273541,0.7054730775152654,0.7718359319475031,0.8446833623169251,0.9188941487054721,0.9864765994771697,0.994895856819933,0.9276656708743553,0.8497514324246288,0.7696588711713142,0.6921227004261543,0.6199116047156337,0.5514373009983473,0.47930671344348086,0.4079134351337056,0.41301799891958435,0.4866469241203971,0.5629893825910368,0.63089896757544,0.6436382951648586,0.6320600504518338,0.6372746031210242,0.6361196468150192,0.6029194849645902,0.5453143443590504,0.4895173790603441,0.48088091002138134,0.5371673798855615,0.5978451721422366,0.6475980371080596,0.6930633943296732,0.7554182149293303,0.8277360296641844,0.9024325543431256,0.9776515242482545,1.0000000000000002,0.9373977649265625,0.8581344098147322,0.7805709163042713,0.7020063373368286,0.6217424008054657,0.541443343761006,0.46127859560222695,0.39739502207814137,0.42803384372579756,0.503491035110393,0.582140440207593,0.6383862182588184,0.6365193623222023,0.6367633862350843,0.6418099986171218,0.6306360883431259,0.5914507380620638,0.5333015765883223,0.481043592761527,0.5009500619797205,0.5623935211453838,0.6196823185796652,0.6649152764110547,0.7162335518905212,0.7851302781074234,0.8610662853304744,0.9348119994328284,0.9852477006906698,0.945670860225101,0.8677819192620563,0.7908021117222336,0.7111837612459196,0.630891099444644,0.5512419630475506,0.4779317909205987,0.46734934683825846,0.5350644011878473,0.6028765505205075,0.6446520285924988,0.6319664829560366,0.629261600556295,0.6296697910178509,0.6113587151119085,0.5669044336956295,0.5066801411262043,0.46281087262104037,0.49946752683365725,0.5614084171806035,0.6130036168277297,0.6551506326879228,0.7149392028268489,0.7870922274668268,0.8605566043510596,0.9329293769460151,0.959588454921645,0.8967238510137899,0.8166388894288726,0.7368865688944588,0.6598844933453707,0.5803988098818682,0.5001048770365235,0.41989803460335307,0.35357853821250074,0.3783215486066386,0.4545090133481693,0.53070114288357,0.5999084396054183,0.6211522649493939,0.6214151619763978,0.6542435719180858,0.6992090569372946,0.7301558073812034,0.7086291500538717,HB
0.7431813173872488,0.7717049163679532,0.8155004467622256,0.8548104455410024,0.8442574042679243,0.811641814843659,0.8004481890900861,0.8291737358049973,0.8217863152083571,0.736351707276695,0.6341925148465817,0.522929614222492,0.4168386283912331,0.31878983472835887,0.23550176344853457,0.1597515551863462,0.10293069108501895,0.02871571524640082,0.0528070685146842,0.15275227680049475,0.2590615017325415,0.3714433017739298,0.4814799892146895,0.5849555173925496,0.695855666305905,0.7998543247772623,0.900420826188336,0.9206584880566799,0.8779296790056108,0.8520686086966123,0.8557742374162607,0.8887092925779871,0.9102048205544917,0.858009622636835,0.7859559739066606,0.7354244428435011,0.7372253846771915,0.775746975573337,0.8264706712067591,0.8640788779781783,0.8609230750031927,0.8335195105762687,0.8226932996320824,0.8473122393421373,0.8062534326854625,0.7104371165671566,0.6045353669484663,0.5014524621925034,0.4000057829348065,0.3076748167032042,0.2373728345576498,0.162060730620726,0.08609148940330624,0.0,0.0010746868733237935,0.09369475278179862,0.2052428675746838,0.31673852728191143,0.42019715329030083,0.5303000940149314,0.6428467840707752,0.7551702760014667,0.8558656848032684,0.9247341464215686,0.9125784432065354,0.8691352166008235,0.8504409878075618,0.8527426701558123,0.87550508934582,0.8800715030339061,0.8160119550296661,0.7497664027440027,0.7100417486290764,0.7187684418558398,0.759040149843417,0.8083409288039434,0.8550526916121308,0.8580095100223324,0.8219535092361734,0.793438226164711,0.7833918710408749,0.7892147399356779,0.7245143807083374,0.6270635535787523,0.5233977978984685,0.4184871679759956,0.31532177861462607,0.2140462063448414,0.14730426711428435,0.09205451399232478,0.008345014390438443,0.02309858059100267,0.12634179434826076,0.23468592621045525,0.3392653265855148,0.4513494955253674,0.5610746736290237,0.6646531655442751,0.7701306560244698,0.8182162024338169,0.7617247679696377,0.7123793235893925,0.6798403954679766,0.6586299220054146,0.703255726088293,0.7336086672984745,0.6943108991026774,0.6192629668656076,0.5351187441424963,0.45307882689103685,0.38330230441334656,0.3212425034524937,0.28909940204599116,0.3134254622484953,0.38396899246881255,0.46061601648255146,0.5397507606568626,0.6043973051452016,0.644724393373731,0.6706893146887283,0.7047575595110671,0.7570509235988725,0.7823543662604111,0.708244085954413,0.6060679290175295,0.5020859922270151,0.3993223991917014,0.2998930215598645,0.23399142314044452,0.19343419723144195,0.10846606324320485,0.06450276412898948,0.1446412393073322,0.2523183318784741,0.3167166565830444,0.3044979915448236,0.3569647511067504,0.46172815080270047,0.5650645082505801,0.6675925373650125,0.7681870857606587,0.8319830933181191,0.822017615074107,0.7658258361454937,0.7230815789649623,0.695338222443111,0.6627485970250429,0.6102144836067911,0.5433790729048698,0.46618904941045214,0.3875861655803934,0.33398634004269345,0.36613263338401514,0.4306375121271271,0.5019763919519193,0.5815249574897701,0.6711901376198948,0.7383062459255312,0.7795491801612133,0.7833473335663395,0.7272435070771861,0.7115008656944681,0.7410655209037209,0.7927339670192088,0.8598715665528127,0.8891756579605756,0.8205287568046487,0.7141958988387929,0.6108239431882252,0.5006503476844406,0.38870483203184425,0.2877002910801483,0.22723992048149677,0.2621395923240799,0.35927641159631074,0.461976135393382,0.5658034172424964,0.6734411308613182,0.77086495374928,0.8270569779085957,0.8291033492100497,0.8375585373919323,0.8673137654765584,0.9044583680979055,0.9032341573101328,0.8636756063993203,0.8126154165027115,0.7662921843231856,0.7570885527169158,0.8032679088813754,0.871495202070971,0.9222257175856807,0.9133088077188796,0.8914835958967329,0.8947305063079325,0.9328079567589365,0.9790186204745792,0.9785271895955585,0.8967638990940752,0.7934312188552877,0.6873974770201627,0.5766738653730621,0.47341659880937015,0.36258642239610483,0.26150633094842335,0.2417934536408668,0.31113185770361684,0.40160545405897485,0.5009265142913637,0.591370074441568,0.6889420570254368,0.7900622132693611,0.8687414883934523,0.8972239864037834,0.8726240451734144,0.8775779292862294,0.9057238940293737,0.9097801876289462,0.8761288965356147,0.8275948464186786,0.7833240873994454,0.7848369655220968,0.8418182270973622,0.915449722609365,0.9586869674517504,0.9400540146376248,0.9036257980208715,0.8916469250551806,0.9172354697515361,0.9627114397989902,1.0,0.9549278121191693,0.8538667480860016,0.749855175708448,0.63855600911502,0.5345715810569924,0.4253798500474968,0.31386666703891897,0.24125130409779771,0.23971353511440796,0.3070846342891109,0.3989175207399054,0.500891994793558,0.6044355078151213,0.7081141086514062,0.8063902006537975,0.8763952673442303,0.878825564510898,0.8441214290782355,0.8576118170908678,0.8895357422195995,0.9068780829118634,0.8764554944236491,0.8330889493058837,0.8003038755314993,HB
0.12303184464829386,0.18152096237827298,0.23402120088680523,0.2845110613838222,0.29915640737122917,0.2899528576950543,0.29648894975112916,0.30060967694583196,0.2894908419135589,0.265819626071653,0.326648875738226,0.41374142119883883,0.506242896060527,0.5970792117163226,0.6868558680562824,0.7756126938969341,0.8572052950871751,0.8581138562347481,0.7747064976525864,0.6897076934132995,0.6075653760846649,0.5270672035244304,0.44492347188177406,0.3686081851685665,0.30201994440557334,0.25578759999609635,0.2134485752818842,0.15179494178978215,0.08266657527583421,0.021263859859230516,0.0,0.050598826155415555,0.12255218508361643,0.19400901458753772,0.25619327168262496,0.2883016471520279,0.28165321312016434,0.29743863602287357,0.3094258030539516,0.3034386098552353,0.3000050248867454,0.3726564417775726,0.4592698063807945,0.5472339299499984,0.6356200617595795,0.7144206153980961,0.7876351075592807,0.8680111502005723,0.9048931960780833,0.8359120806236591,0.748275576411529,0.6618197006672883,0.583846906341684,0.5071795285008986,0.4306194550217546,0.3603363919102265,0.3134433048267826,0.2691276601296453,0.21025518863747172,0.1450526465273443,0.08425672298211495,0.07734940697802184,0.14076263609913053,0.21008623535850734,0.27606019814388616,0.3336083792106148,0.343096319875021,0.3319512270001328,0.33698159023267693,0.33231341425768224,0.30581594141541446,0.3100412246881552,0.3806725091403105,0.4650985773898737,0.5531316369032204,0.642539972522775,0.7346256794352941,0.7793999250206913,0.7152575186064152,0.6360568847257295,0.561853439037062,0.4846923385163777,0.4059792889929159,0.3370032557195868,0.2846501084261921,0.24180315186028079,0.184548760464758,0.11496759870273321,0.05443327985127233,0.03091630037474924,0.07867837363802543,0.14751990129343429,0.2174689920682742,0.2633552070330243,0.26611837818568773,0.2838841142043813,0.28863511529647146,0.2883554232042109,0.2643186820240684,0.25728703537507647,0.33613738077577415,0.4253382499237204,0.5129104684058914,0.6015082649319328,0.6898301583648538,0.7797749235347851,0.857663440719427,0.9087374200390406,0.8535732051269975,0.7650011887930799,0.678555979376986,0.595319254383778,0.5135037898306438,0.43838104527700383,0.3641931351533889,0.3044221428014344,0.2680255706757251,0.21580382014122268,0.15071764658548936,0.0861779638982545,0.04677576158026975,0.08245228785045855,0.1537472908351336,0.2255377769653557,0.29080133043335166,0.3384864279609854,0.3488614250229414,0.37832633866405163,0.4045319835213692,0.382073457713908,0.3745611410893246,0.3467868115849406,0.29046265476903477,0.2197822867567576,0.14637341514520075,0.09341868682175702,0.12335809426118871,0.19026570367327622,0.251749845769635,0.29943665110245465,0.3368476345469078,0.3959724393286794,0.4684836414378084,0.5439246423417756,0.6218789212901612,0.7038296278792451,0.7941913430757783,0.887628215588937,0.9714505693832216,0.9999999999999998,0.9383575115474765,0.8560019580052394,0.7668197693063703,0.6723624894725204,0.5789074433924306,0.4911044504438926,0.40410090523832687,0.3341255192891188,0.3264352373366155,0.32729144442352354,0.32718489120739,0.30369690832348617,0.29650327842151625,0.2531087006579473,0.18777737458491028,0.11947736995772518,0.07511258181380498,0.11268431850540894,0.18034849903486339,0.2430511104581301,0.2889003275590023,0.3361295463345415,0.4024499595372866,0.47626987305276325,0.5523190505505988,0.6313307810514648,0.7112526779877002,0.7959330089285757,0.855872051578989,0.8200070974979399,0.7411511676969817,0.6689643993362477,0.5943336437050002,0.5068029161504113,0.42124685037852894,0.36150960414203737,0.3586604963039599,0.3668152198471921,0.36815138109217815,0.36298773597787926,0.37247612252317586,0.3348475127145627,0.2745113187017554,0.20648799152242936,0.13402365203028,0.11401124280361241,0.17007238104321454,0.23748271129392218,0.29471841806844234,0.3363467513651228,0.3840261997390657,0.4601705617449974,0.5371539964318206,0.6149204931707544,0.6923023947425102,0.7694729131738891,0.8466239666099118,0.9323018039072226,0.9862477430303545,0.9389521432893415,0.8557568129081581,0.7680836135548625,0.6790663438528486,0.589191881311212,0.5007459821672708,0.4087461937771377,0.3499933440859748,0.3425053489983876,0.33377241080536213,0.31945917296177484,0.31920147355371764,0.30684139589707016,0.2568719311530294,0.18782101303687804,0.11606853817638063,0.05504680834647524,0.06978221032712595,0.1361405997169598,0.2033230472481633,0.25934919197487094,0.3009981799586552,0.35314893589401053,0.4263135305595127,0.5026482882279342,0.5814781247749574,0.6662693014511949,0.7537124899588004,0.8415562887670087,0.9290804617419075,0.9917752939385271,0.9593949374892026,0.8763123147968754,0.7865396980320605,0.6974160002306866,0.6091740660595171,0.5190190792320575,0.43151803814238,0.35333902255384864,0.33530192537495185,0.32906854418204,0.3327578679193739,0.32224599957775224,0.33110025928302433,0.2988088238561035,0.2447143634171811,HB
0.0,0.06988316140671413,0.15443935313593515,0.20704282720304956,0.21817183348089397,0.13875656709203454,0.12658313913064,0.2278560051566707,0.34228301623279567,0.456034570347466,0.5522359456891994,0.5253354751351531,0.43067863067790446,0.35207133138796154,0.30633391056564374,0.2513758258085974,0.18734972846243725,0.15833401664608537,0.1243740704665246,0.06689356330790197,0.017446614977832064,0.065255554052281,0.14139161047272664,0.10813459963577499,0.106020599223001,0.1651495312068123,0.22891355409065817,0.27352546804297173,0.2886564199181052,0.2952624364818841,0.2781985320959781,0.2824980963229242,0.3405572262856569,0.3823256299433071,0.33024664909889223,0.22364331208494814,0.15656306873848358,0.2213960126078489,0.3342191645402912,0.4458871090781673,0.5599012376800774,0.6222936514240116,0.5669159651579929,0.4741456824831749,0.3997896635819487,0.35976966206082883,0.31133298245552865,0.24919575480358302,0.18572491511343658,0.17671040770074864,0.23069702960450122,0.28221723288084855,0.32624775361728275,0.3450371013761946,0.3492401721602567,0.334830754220647,0.3116902634460388,0.35115563129559346,0.3867206581958551,0.3288263579073911,0.2258413407361366,0.1835072628517329,0.27514684576496995,0.38922186606985454,0.5036191878082041,0.6177716884931574,0.7299474234244343,0.7667303228497304,0.6773140453650286,0.5849637901575981,0.491817597924316,0.4132998466446147,0.36048201777893496,0.31426423535543346,0.24805410738582756,0.1761506016478398,0.13206259188697267,0.16032371382160893,0.22437062188515755,0.28281627053999125,0.3170455658367013,0.3341401989834898,0.3427707631591024,0.33061943539616667,0.2896602479919492,0.3075598024297457,0.3548579434586401,0.32601659577333253,0.22418103523697042,0.13972847927093435,0.17708292415472027,0.28369827451758267,0.3994125406737581,0.5110045544768544,0.6159895653815481,0.5986367464533098,0.5039046983536526,0.41440597752268893,0.3580928387205571,0.31340932108164754,0.2573727234577672,0.19682833869933836,0.1504885158491276,0.17429074801296496,0.23709567818729305,0.29455983362071114,0.3297627361323032,0.3383552462622843,0.34315915415751075,0.33071279753103555,0.3014656112895797,0.3388575273236727,0.3930174613087689,0.3773922710371904,0.2881141153981077,0.19562619932189396,0.2054075915725,0.3083056075820547,0.4204800177652892,0.5356132936197122,0.6443876108887627,0.6857540773910711,0.6065621595608444,0.5138899145076783,0.4401982486636129,0.39834474825330357,0.3588275939600396,0.29314755256484926,0.22752993181411885,0.20348107640063073,0.24959904214098838,0.30358543272307426,0.35157926389627514,0.3868251903325537,0.4109945965959283,0.3798087349627335,0.3328385561450662,0.27705288319707444,0.266899011515362,0.32705576271358217,0.39207033443623596,0.4333005548489033,0.4766378803221891,0.5555380569565207,0.6491039871375022,0.738935949722368,0.8554854358213646,0.9593176040316869,0.950781656541897,0.8501625370994326,0.7369393813687664,0.6258177333428678,0.5095138022753956,0.44494280625233973,0.4421322696609238,0.39442305236988107,0.3620987711392889,0.38651028277670507,0.38300972511410203,0.38525811128509035,0.36319969632312077,0.3243833524282631,0.26656876231508164,0.21349122372524088,0.24191668962087043,0.3010834266990985,0.3549268307477398,0.39863673873893246,0.4670418468705564,0.5639240321334151,0.6575440527138179,0.7500302482842818,0.8554917194458165,0.8702144028037595,0.7761920081809937,0.6654680842614482,0.554162323436235,0.44433145637369353,0.37454391514954244,0.41022074764998306,0.40142285403478795,0.3562426524523379,0.35463314083868447,0.3865957497726269,0.38202253046508217,0.37136615142567075,0.3442489000385027,0.3018687349500535,0.2363061681363634,0.18682466819883814,0.22403273766380583,0.2995114555744256,0.35712705905475506,0.40570613342354056,0.45798392821646905,0.5448960101948837,0.6475560671231153,0.7400292564922548,0.8501820795349171,0.9566070530738409,1.0,0.9170028843297096,0.7970977031066799,0.6835764783840603,0.5681415771265184,0.45931370345103595,0.4333325545634672,0.4216900188958692,0.37752862634995266,0.37727888140905064,0.3968423396989187,0.38204809549649354,0.3854934623882156,0.36002990842607474,0.31485267625799906,0.26202349550720605,0.22555696000030467,0.2752693038503762,0.3405829326039602,0.3876527407907773,0.43042983430994086,0.49995204022787654,0.5942041579823689,0.6896373175241988,0.7953334250287512,0.897670420573351,0.8978917772279789,0.8025479121463088,0.68918094321285,0.5771758703522498,0.4694695840534169,0.43402536903279554,0.4013288396918302,0.34754899962064334,0.3286721663713874,0.34382726324234447,0.3327936403605891,0.3195962765469935,0.28723966236295384,0.23222552557239506,0.17046054708190006,0.16820002146773172,0.2292142488523652,0.2893125323221777,0.33929673356876444,0.3871153255458726,0.47132871551747035,0.5672295768072062,0.6563020582168448,0.7567595210102036,0.8398387177326687,0.7910012991613575,0.6857089471360132,0.5739803003203763,0.4680475561738109,HB
