0,1,2,3,4,5,6,7,8,9,10,11,12,13,14,15,16,17,18,19,20,21,22,23,24,25,26,27,28,29,30,31,32,33,34,35,36,37,38,39,40,41,42,43,44,45,46,47,48,49,50,51,52,53,54,55,56,57,58,59,60,61,62,63,64,65,66,67,68,69,70,71,72,73,74,75,76,77,78,79,80,81,82,83,84,85,86,87,88,89,90,91,92,93,94,95,96,97,98,99,100,101,102,103,104,105,106,107,108,109,110,111,112,113,114,115,116,117,118,119,120,121,122,123,124,125,126,127,128,129,130,131,132,133,134,135,136,137,138,139,140,141,142,143,144,145,146,147,148,149,150,151,152,153,154,155,156,157,158,159,160,161,162,163,164,165,166,167,168,169,170,171,172,173,174,175,176,177,178,179,180,181,182,183,184,185,186,187,188,189,190,191,192,193,194,195,196,197,198,199,200,201,202,203,204,205,206,207,208,209,210,211,212,213,214,215,216,217,218,219,220,221,222,223,224,225,226,227,228,229,230,231,232,233,234,235,236,237,238,239,240,241,242,243,244,245,246,247,248,249,250,251,252,253,254,Target
0.6251643576147057,0.5444238044580931,0.42686234531431744,0.35676616214275203,0.3632971685827977,0.45609121187090107,0.5049572549541237,0.484036143379563,0.4931905722261929,0.5418767480956115,0.5644802110680249,0.5811229194425289,0.6215586776742263,0.6327031015170625,0.652454557733007,0.709457943575206,0.7214022400729112,0.7194522864147048,0.7560750371356866,0.7213150146895657,0.6697619816810167,0.7380889466123284,0.8348653463666551,0.9465985736759217,0.8935032335874284,0.7570488451756576,0.6822478184567196,0.6321381252682841,0.5448645180458556,0.4353905153402371,0.35186370762996866,0.38707252375355594,0.4810491281779967,0.5473699331833313,0.5663692615610634,0.5966594033396895,0.6279645901675126,0.6155581599812248,0.6303202163472941,0.5881155856978815,0.6450077132821157,0.687958995096472,0.7385920811783508,0.7423854378471733,0.7693619105879721,0.8043103216085719,0.7867797240707572,0.7121733983066676,0.6394564422705784,0.7609314829719658,0.9274566445567682,1.0,0.8668174637855621,0.7562472511455667,0.7359680925363659,0.6435603064457558,0.5372843417479842,0.40467953973070525,0.3137970179337026,0.2849356779202763,0.3821779996408443,0.4817553081585091,0.5469412262994027,0.5793893917151474,0.607856363061301,0.6288262588749634,0.599271799903276,0.5691536499858305,0.5988289281104509,0.6536111034184247,0.6976130577553823,0.7145204097164877,0.7211589656579829,0.7203338442472083,0.6926560365207299,0.6160203652089749,0.5142980821518996,0.40848743175486035,0.5616398796385456,0.7539776933472524,0.9192113049531025,0.912742378378792,0.8074388818851705,0.7016988537120898,0.6419784040234315,0.550666760057327,0.41949429604201605,0.3137136796470781,0.3201593854908662,0.4222015812738755,0.5132423597161333,0.5625802014264165,0.5869208699928912,0.6727830351970532,0.663541815663474,0.6103287822072989,0.6279220724728374,0.6530840740343953,0.6851400842761759,0.7130113257718396,0.728580666353948,0.7245102554611922,0.6813757793297706,0.6108509366193866,0.5268069372073203,0.6114883104122155,0.7968847452699688,0.9550301875560878,0.9879765424517268,0.8575278069335273,0.7569066977237586,0.7014048053390605,0.6128904520487568,0.4814834633112932,0.4207753236376348,0.39293006912783746,0.4781708162656546,0.5692500555982649,0.6050496495876931,0.6157149197800056,0.6448900043106054,0.6591041081108502,0.7353293019412162,0.7236439820106959,0.7189690166839862,0.656115268049561,0.5793262287060603,0.5440418735349919,0.5160311327368259,0.5009700061215954,0.4320139004009418,0.4497238084453654,0.43347171171167265,0.3629471454170332,0.274951207956434,0.22211419871489646,0.244974963600753,0.36194947162223734,0.4929304257153939,0.570131505688817,0.6088901218486855,0.6975185084440954,0.6081349286981439,0.4032215412006108,0.21516874134536046,0.12622365682054149,0.24884310626553052,0.38559730162060557,0.49475205862165783,0.5616428201306665,0.5886742430840677,0.5815342647165709,0.540798924837194,0.5053990600506699,0.472425482543537,0.47839374875093643,0.47306177945833916,0.5042408530593496,0.5019987968306285,0.43077384395364504,0.41493996076178075,0.3424127026788817,0.22352475745393008,0.16195526700918794,0.167629166033624,0.24661624933645054,0.3713930629522464,0.48770608277857264,0.5491893001437944,0.6239184326645848,0.7065735872224383,0.5652517705281399,0.35628648528634876,0.13519904483549094,0.0,0.08055993005102113,0.24183668932565983,0.37676555813018897,0.4822277453796886,0.5538200281440293,0.5784354079135987,0.5507656446098341,0.5326881114700948,0.47191882261655493,0.42145169872648225,0.40050809315736924,0.4498404798431581,0.4883222196189232,0.4642802314886598,0.4259297181472448,0.39621461528579793,0.34669676800873894,0.2367798958980334,0.162384383030445,0.15447233157583362,0.20795676717537592,0.33735979506482217,0.4896299634193708,0.5689563667554651,0.608471134171614,0.6975015897127097,0.5976416532120661,0.40523892381032933,0.20628128292107029,0.1683729113875172,0.3165400537781142,0.47949522595130567,0.5739951549263251,0.6462748973768351,0.6380474314625051,0.593375283351814,0.5674021037710624,0.5508269847227591,0.5183352180618082,0.4766313137550009,0.4791402409364851,0.47177380395238355,0.4854116527429957,0.444562359980857,0.39475408157700986,0.40540697128020486,0.348900150364849,0.2575233388117679,0.15894700660872996,0.1728200851084809,0.24821085862355474,0.36597768268009645,0.4819207215037862,0.5371660173347337,0.6111903857691434,0.6960492709012662,0.6107926465454421,0.40969496357072455,0.33251571372717503,0.4550751727563691,0.5157611804478481,0.552652719625331,0.5859194668834382,0.5870875828149522,0.5386738049560114,0.5071094401362286,0.48129694830408987,0.44439676182745114,0.4256670007050465,0.42086798241557855,0.37654026186349476,0.31667392430011976,0.3273585107448067,0.35906809370756054,0.27705670632555357,0.19871982725783166,0.1622703716157341,0.24127791238066365,0.33925060928050765,0.44756869304371794,HB
0.9999999999999999,0.9492061324906932,0.8938913704881023,0.8389922604364665,0.7814832233081527,0.7256139302595456,0.6711245675454943,0.6136719346378828,0.5561512618914354,0.5020455101757341,0.4535637333852838,0.4012625890246909,0.3541770737792572,0.30800655608692873,0.2591622697923881,0.20662418314709652,0.20140698212112285,0.2509192929010412,0.30329555078660286,0.3460959221444537,0.35360628975554675,0.33415207563984584,0.32991295313604196,0.33099937061598494,0.30786775423074886,0.30087296523802876,0.2887177590550184,0.29630179638424436,0.3160323471335137,0.33765757899903104,0.32271276615105426,0.28006425310035743,0.22923603442179752,0.21645470853884896,0.25482296921867653,0.28419909990780146,0.25252825597764705,0.21755766509243857,0.23082823513932094,0.24227219026235225,0.21644795049864074,0.23143460574915975,0.2707812278707451,0.2970999475000149,0.30763783048185767,0.30020281310287156,0.3193701065050255,0.33449969711590766,0.30986469913722425,0.2587015197457663,0.20556964137818345,0.15263115976821073,0.09865987420519529,0.04881632282952886,0.04136326794373657,0.08807103602637267,0.1434695947307839,0.19913695004751064,0.2537557033467479,0.31124345440138057,0.3687368056478145,0.42340108405747756,0.47906405930937623,0.536667129608175,0.5943039293515521,0.6514361480683394,0.7054003132897614,0.762095403570742,0.818384868478763,0.8363704305352909,0.7877723119933319,0.7331505126606218,0.6776016672987418,0.6227995056359722,0.5673294133354357,0.5097982478992739,0.454519014383994,0.401104607479407,0.3527641611834137,0.313922124058305,0.28386721553596306,0.2551385047154918,0.24262676686487816,0.25576502739489404,0.28262965911548943,0.2967096905422494,0.2851296517583273,0.30385909747292206,0.31607619548688815,0.28352745635873156,0.23143600032471645,0.1782700512133797,0.12455453538935546,0.07047249122989163,0.02058153858513534,0.013922167115055784,0.06424067872626549,0.11899135041102782,0.17451298905456358,0.23210359466621788,0.28896187166922416,0.34288319561733716,0.3998945044924962,0.45753053166748336,0.5150544397179592,0.5698721339304406,0.6253623644387848,0.6829510904374069,0.7398292936593592,0.7937335286906962,0.8453202006919843,0.8375428146491476,0.7838059532013094,0.7295477801555431,0.6734889379876993,0.6193438192258706,0.5634981065475183,0.5092730097600712,0.45389355983917445,0.39981698305401137,0.34744933617528273,0.304000788019651,0.2722423180790259,0.24330720046643928,0.22375984565028617,0.23574404411220284,0.260972570034663,0.28738396401176236,0.292937671974416,0.3044304773316403,0.3067874800793038,0.26276044835078083,0.20935519844268358,0.15596518872307363,0.10240713183839922,0.04744262684524514,0.0,0.002644907086737369,0.05354590632490197,0.10742693313667884,0.16445545277825135,0.22209161118675103,0.2797296009448257,0.3373675907029,0.3950042554080029,0.45211385664468806,0.5060637252265378,0.5627959383351931,0.6204101692112848,0.6764726870567527,0.730806584911632,0.7882150314131015,0.8451921933342671,0.8727792491553595,0.8319034957905654,0.7760644137577496,0.7219960006858325,0.6656808694833619,0.6109646896083053,0.555434395578427,0.500219296888018,0.44637845640316764,0.3994921852922899,0.3537612921009412,0.3133494392769841,0.28209806398207293,0.25090014057975285,0.23725832064770402,0.2518783429096737,0.2796205063670121,0.2860396335899229,0.27363240034058045,0.2954071230999269,0.3257753095418957,0.3201959161123362,0.2730697653166878,0.22011763694310638,0.1640801323639699,0.10759145189268404,0.05581994782714006,0.02853362751672761,0.06383248524555729,0.11860906339611155,0.1756336414851306,0.22957693488734565,0.2863299676059642,0.3436164110575821,0.39772839174123653,0.45412164945457645,0.5117448492406712,0.5684684212960119,0.6224241996115,0.6795365630994149,0.7371733256612104,0.79479352132417,0.8463772239293518,0.8362236273742932,0.7829749181183397,0.728016367231009,0.672242852286295,0.6177587598869877,0.5613941724102337,0.5122188017609363,0.4673438956031366,0.42018274245926146,0.3709382425652815,0.32990972054506007,0.29994307354887584,0.26625049826625047,0.250066270941558,0.2597733004403474,0.2824956520172346,0.2965127956771293,0.29818555804637403,0.3158966403847532,0.3095781105239408,0.26493195656476354,0.2118426598847507,0.15806297574604833,0.10476621454685853,0.0504133043906041,0.017551965739849185,0.05085427304284651,0.10506890263572455,0.15967572626998305,0.21140151035622146,0.26162739189924056,0.3173646752692715,0.37497504617211064,0.4324408426476237,0.48697032373297966,0.542788972301892,0.600398737962445,0.6580351171580524,0.7150926013436837,0.7690256122357303,0.8258079016842034,0.8772965027993634,0.8668830887710922,0.8143070129472975,0.7585790209238769,0.7009736112283679,0.6433548985663452,0.5873227927445911,0.5330837104368876,0.47854997997320203,0.42491707304047643,0.3728224903197157,0.32912131122200095,0.29787159875407654,0.27086821111188186,0.2528674009463623,0.263588294736681,0.28828801433881135,0.29900852322311644,HB
0.884527415723344,0.8523901070440627,0.8058982408013087,0.7839850239370132,0.8303078798261025,0.8723369065047724,0.8752961279980518,0.8708492740762956,0.8713499949397048,0.8826761773296408,0.8883302359683429,0.8875348655704269,0.8652424272496084,0.8094327238052315,0.7777170398846618,0.8086432462151052,0.8503220556268887,0.8930126191765808,0.924799490047453,0.9516576097728451,0.9756984149095951,1.0,0.9961022275037856,0.9954888243924733,0.9927979220395695,0.9144428128283053,0.8132888433431318,0.7061818600884413,0.6078309983043964,0.5572272607338813,0.6396428754400039,0.7377228246560348,0.8292730972280262,0.9199662981098222,0.9623549214716456,0.9061988936880545,0.8476082374810288,0.819243368118634,0.7890094199543931,0.7364941319500935,0.7399938530214052,0.7892049440130919,0.7996046998725306,0.7880713053999586,0.7885944643609784,0.7706135269042722,0.7687764952248113,0.7829237861557745,0.8016934297443243,0.810194469793502,0.7778787290907716,0.72604443177346,0.6898341097969296,0.7188058787906715,0.7513934976668617,0.7922611548841085,0.8313274278367966,0.8610841127820374,0.8941134402984652,0.9057641549318447,0.9102789744644997,0.9297102576621037,0.8663098624543877,0.76844019450215,0.6661132851170408,0.6466601464770547,0.7339966427213853,0.8248481972714514,0.9107479944001682,0.9500702210226781,0.9269743313530685,0.9104003834575929,0.8725839545963745,0.8190966877940005,0.8010622499883988,0.8383114522284711,0.8317170577755246,0.8177624797304723,0.8122007611604629,0.8177813327545151,0.8181357815928272,0.8181185791852479,0.8134597977076501,0.778628990019425,0.7214733410072318,0.6828151043797472,0.7018096974905266,0.7426988354170367,0.7737278705709931,0.7989767043651632,0.8193847524565787,0.8343240402059551,0.8426532029138447,0.8598238468865627,0.8191753527749057,0.7262203990291232,0.6247211489379203,0.5238892724628021,0.49234857406156607,0.5781771937208169,0.6754193874208752,0.7684827143707009,0.8520573056800251,0.9088194071287239,0.8849481073620042,0.8538262224418665,0.8360659936462831,0.7917794861948835,0.751592500726014,0.7792772929490654,0.8296677790757672,0.8402951330714545,0.8356609596712294,0.8295467912679553,0.8300808518897713,0.8356180328504395,0.8306896194217277,0.7986559068927255,0.7842806933508455,0.7826988117305906,0.7825517477891735,0.7774195509464872,0.7902070923296236,0.7926518170672661,0.7677981371453138,0.7156095713525019,0.6686791157371998,0.6906583952928589,0.7448937168251732,0.7864736049837444,0.8003264585151557,0.7962701253714055,0.7282310635698286,0.6270914631221527,0.5184688631505314,0.4202777884799933,0.3265786108491442,0.25115251346620004,0.16698486588021488,0.0642127611496357,0.0,0.05378491351247705,0.15061713132933363,0.25691551089238107,0.3571061864853733,0.462910553424039,0.5635985447260858,0.6688243391677031,0.7626006305610247,0.7891766637612068,0.7765313409636971,0.7632110241970729,0.7417338105423674,0.7179553661381601,0.6803688097106124,0.6374381196428138,0.6098471363107509,0.6072949539273824,0.6584329536656712,0.7166740193423098,0.7613004354195492,0.7621926724525778,0.7594064800696119,0.7640147840194609,0.7586263842164058,0.7584564945941543,0.7625040517116943,0.7581659179363256,0.7300244359762393,0.754272231182834,0.8101682746451706,0.8546660538985842,0.8744727541314323,0.8606112553491729,0.7863381028377954,0.6929253631427628,0.5932026694622632,0.48947110697111196,0.38915228607404284,0.2831783383197952,0.17450073836006919,0.10936424136899703,0.15038174432634888,0.24790777185340218,0.35918146724957056,0.4707737721894305,0.5751136072603038,0.6767819739523895,0.7779328005628479,0.8420332704643378,0.8537191127538213,0.8441747435406497,0.8222562284516681,0.7879700305989652,0.7511684771654612,0.7103253341060829,0.6777962873679297,0.6390468152555244,0.6298969663964455,0.6734884034236956,0.731462533789303,0.7537896816121825,0.7363157348914622,0.7237869650713007,0.7233080734846316,0.7233531091279599,0.7288957148652186,0.7452662986271612,0.7276291822686733,0.6816062924767174,0.6455325358827917,0.6781242980605708,0.7320704663970665,0.7698482014054804,0.7992697605466201,0.8267581863460158,0.7657736900188494,0.6598279559728462,0.5613407921341151,0.4536329268286554,0.3552275117585846,0.24548158118862684,0.1426635486953911,0.11000453180749714,0.18249065182767144,0.2854232038150468,0.39472011409260555,0.49303474830352556,0.5949848715494479,0.6972013861950419,0.8056633951847032,0.8915887451610498,0.922593407458038,0.9311552520937108,0.9129571832188379,0.8805375017504846,0.8521458722113753,0.8155538030049243,0.769327319575257,0.731221774491233,0.7144397513127956,0.7468140115912183,0.8038682105431132,0.8409358359271262,0.8449501945010369,0.8320150395026911,0.8286848489020437,0.8286701324915917,0.8265582902147375,0.7930639468457379,0.7401687484684372,0.6988968456808449,0.7322540296792659,0.7843906555561344,0.8232046302873379,HB
0.31991155454421993,0.3515146156292792,0.4358595192906969,0.5404232944964122,0.653448859194131,0.7727228743117251,0.8878605897326284,0.9845148809000612,0.9766381868727927,0.8777785442436667,0.7652301820437466,0.651562641703884,0.537348255558316,0.4246647541816957,0.3152453606751058,0.26356669913763575,0.30501376995975016,0.3146128782269666,0.28132520955935725,0.2820939161158147,0.32568343190073756,0.33252056799213214,0.3328736797832035,0.30297057687829576,0.2431463594006218,0.2489464099628158,0.3054847556099005,0.33278997580367786,0.34007157995848347,0.39234224909634063,0.48715075886951453,0.5958662385135445,0.7083406575749946,0.8193916276983573,0.9013180103725849,0.8567982315714877,0.7491533451695309,0.6336641895126611,0.5227042688949783,0.4103109825530691,0.2981160793750346,0.1940945320363383,0.182613788361788,0.25781223086728877,0.28211860402398137,0.24163473510086453,0.21331766600715985,0.26258242090393,0.2891193640662246,0.2765791602067582,0.2387503868128369,0.2173854633811001,0.26811497115080685,0.3029820494193556,0.314384744650511,0.3432921989114317,0.4229869709493914,0.5270930957905642,0.6366599888345275,0.7482503566829428,0.8558510927949143,0.9003464619113526,0.8189672233137602,0.7058981271806157,0.5949677433949763,0.4802648876750757,0.3688186521630401,0.2571225491448368,0.19247993501523042,0.252954796349548,0.30184092181057487,0.27374411303346946,0.23697914112189689,0.27324405077535086,0.30574877519266996,0.30656533313541057,0.28241232811866146,0.23238670594009658,0.2474805644576783,0.29745298809254783,0.3236655991618991,0.3543617036333513,0.4256636979856929,0.5313061306304587,0.6488161562555548,0.7600291402589101,0.8754736596116333,0.9788015513866624,1.0,0.910381896023706,0.7979032866783111,0.6850575732207025,0.5727437668178936,0.4615987409941793,0.34374952815424886,0.2584128146030926,0.2961080740375406,0.3210811776736784,0.2849689640997901,0.26888605361352047,0.31053170013547127,0.3340683497629324,0.32289637672531146,0.32010058131454344,0.25416063295605307,0.2375664355819458,0.29408644250233484,0.32658829557066116,0.33363291431772035,0.36146323003772896,0.4445767339368305,0.5474891098751642,0.6621563454894503,0.773295139913373,0.8889717595399897,0.9790115819130141,0.9503155810700448,0.8437514257143328,0.728853576242305,0.6169344775256378,0.503894599179747,0.3914989177272261,0.2933415503650074,0.23331883812228527,0.27769063224085944,0.3041057651057504,0.26653335711277126,0.24207174248972008,0.24922898122856374,0.19624266145061475,0.09489306892638028,0.004246144357425763,0.012265559824523153,0.1070231469300893,0.1516773970940346,0.0693042307306968,0.0,0.037183222502429336,0.14454597676425163,0.22106305661322745,0.2530292808301209,0.20259189780845,0.1314453955208963,0.15972475036936173,0.2581488773219289,0.36854932697208964,0.4872533473418965,0.6049184883458119,0.7156737675178895,0.7997199764235043,0.7328735479808857,0.6213201340678802,0.5214453138280857,0.4281842197087711,0.3370677745081563,0.2811880363462915,0.27274388310492625,0.24177622934255671,0.17807124405371466,0.13799839326763652,0.18070453634688888,0.23831342674485256,0.26275830271421907,0.24887382672296665,0.20001770420921927,0.14593440926947565,0.18662342620623362,0.2405313828954958,0.24858230806149462,0.17863678233033053,0.16870454509821697,0.2583591906788809,0.36875669573052994,0.4831349105714615,0.5940399722007155,0.6884227086185253,0.6576394078994672,0.552606976598319,0.4445903804696316,0.35158287908301844,0.286749392246755,0.2716009588150037,0.2679879488979586,0.2187589874112743,0.17174123438818412,0.19630860325207133,0.24999823968725554,0.2722183858830569,0.2539465351508283,0.20452933859016964,0.19715383923852348,0.24300310659429725,0.23853843214132375,0.15852708786246494,0.08361058511002373,0.12036301426724583,0.22648160814543195,0.3372568469195414,0.4478442364979962,0.5564671021946275,0.562119334150883,0.46139337581917683,0.36454356454695525,0.3003310988609278,0.2772642696556098,0.25226743482160763,0.202838541544496,0.16596110812608922,0.20649346765343468,0.23971738266087006,0.23953259260337867,0.1932873926623142,0.1635305401069378,0.20846033116695617,0.23889826041796303,0.1742986244445699,0.08781791803495587,0.0756114094062812,0.16730717447807608,0.2774505850412907,0.39581497115401465,0.512705807480053,0.6229456493074514,0.6829925802448233,0.6011133475637869,0.49089197666467976,0.39243522734807534,0.3160967562453545,0.28479420352738316,0.2611562189593315,0.2274317125020977,0.1783253531305231,0.19034383717044845,0.25335975809167843,0.2837044318749571,0.26582363825921695,0.2171968650827223,0.18477418578284044,0.21613089588739132,0.24865151810733588,0.2118986854596101,0.16592058613415972,0.22980514199268676,0.3314425335484874,0.4424249345148401,0.5535865668074229,0.668401834204535,0.7707585441619331,0.7588843500600091,0.6519065321848423,0.5554522483788804,0.4542505905704677,0.35003580858808325,0.2872384472799592,0.2610886488880224,HB
0.4869393532620263,0.5249054301329217,0.5812439134933838,0.5944498836205883,0.601472564984741,0.5909255519643404,0.5303694448476346,0.4851383956858841,0.6380485512794039,0.8227612340686665,0.9815099214018304,0.9779846573521827,0.8199342730200891,0.7186753277829805,0.6931303484552611,0.6960091560178858,0.5839572129407902,0.4778224121070096,0.4002507946797058,0.36228900576726186,0.44342814485970994,0.5234370406620146,0.529947169590395,0.5299579283021787,0.5299579283021787,0.5298298060981521,0.5154967981117782,0.4809161662774537,0.4346637763560848,0.4412330554101658,0.5051616596791906,0.5522640037369415,0.6085591372080321,0.6433767651976181,0.6457674005717378,0.6608149710734628,0.6212978442185975,0.5170970346388435,0.503384062239852,0.6684291020552733,0.8508352445608747,0.9722592412574924,0.9119023575858947,0.7985930494556444,0.7534068745850862,0.6859625422135283,0.6041734812753949,0.5231443211897551,0.42608948022534854,0.43299440142069834,0.5136731104121859,0.5617432893508925,0.5530516900143017,0.5674520576685547,0.5762330829267821,0.6040415397757757,0.586936103391297,0.5552338032375772,0.507641036760333,0.4426907506139992,0.4230285895227208,0.4571412380275026,0.5132002078297493,0.5321230677358253,0.5672790453720085,0.5933094612029324,0.5895387064411439,0.5582272658254706,0.4758630364391676,0.5280951905755256,0.7195379233970653,0.8961009109579008,0.9716933198644666,0.8560918134664783,0.7293764821748194,0.6555414127125498,0.6007606674850816,0.5583037936094737,0.4714931801433142,0.37173824144478207,0.3410734668998163,0.43274995109382886,0.5204469821560753,0.566276135093279,0.5681947223822421,0.5681950997766343,0.5681950997766343,0.5679426879918124,0.5451950348219841,0.4818453107922256,0.47272111618845525,0.5386271094343398,0.6005843142227221,0.6464700517599891,0.6894740399692534,0.7189202814600435,0.7210566862883105,0.7063947061773099,0.6025619807479679,0.4515948503958791,0.513834194185808,0.6975116966243995,0.8822308319849848,1.0,0.9518410108913624,0.8252521304608162,0.797703554918928,0.7797199755792645,0.6844293571168354,0.5610629993132479,0.48221059816680967,0.47312386858083055,0.5618838324145452,0.6491779704640344,0.64347982836287,0.6091139991236538,0.6281144219370054,0.6216583422558815,0.6236719999508695,0.5789096570565251,0.566364233891063,0.5193312456258692,0.5068547983477574,0.5200011077690432,0.5834485518089254,0.5182666849777977,0.4009733183638673,0.38267535114424334,0.36565255009779296,0.401707851952791,0.4376765597977812,0.46189008194396397,0.501350795632912,0.4792039223862643,0.4971110685375022,0.4708864704639888,0.4808336981283423,0.4611949462729248,0.3602011620116965,0.309226374519012,0.32140427613164047,0.4042502042639846,0.5032004343515322,0.6205961988986486,0.6676479621802347,0.6611476333293336,0.6082146975986511,0.4731195570482356,0.2814283220494609,0.10631070874387216,0.001906068559737406,0.102532289088904,0.28025281518207823,0.45266678256031945,0.5918749107674763,0.6283673769780265,0.6064710785577789,0.5767879100622073,0.5243029199556553,0.47640363471898706,0.4141421742796192,0.357228813807156,0.34523733518194,0.4029794033374028,0.44835353988226423,0.4571915341742283,0.44936112698679587,0.47380948018385727,0.4492350862799084,0.43068453000122275,0.3560562037011801,0.24169543651443615,0.1880420206879867,0.2358414099989412,0.3330901973956051,0.43368892816226,0.4909099914672481,0.5228127871707455,0.4965978107868443,0.5226158086391806,0.45524666362825084,0.2678210571353006,0.15406040673513832,0.19908163698441417,0.3451477976891777,0.45258737275942007,0.4757700701915306,0.44695784257258975,0.4020812140980139,0.3841276147482171,0.3304253722368422,0.3039598445770899,0.2913893007747701,0.33502769825658785,0.3972419242583003,0.42827877831472083,0.4493508985419359,0.43785606185473824,0.4354447211856005,0.4444942524855504,0.43732280977644944,0.40549489894059576,0.325494283745571,0.26127477670039756,0.3192134984909236,0.42287100399643585,0.5076013165819617,0.5807435598282185,0.6188935161017408,0.6063201783313019,0.6405155536996787,0.4870867627533304,0.29896325957765857,0.10804869397063488,0.0,0.09499100023539953,0.26726818825668275,0.42697810054956165,0.522731747604773,0.5472011604594051,0.5180499796003053,0.49067026114649614,0.44283721114530294,0.38881190117370235,0.33239226021333224,0.32625809033086295,0.3593310721505665,0.39138183888607614,0.38617370031689724,0.3997168323332927,0.4076647185446003,0.4358848205869226,0.4292929998747672,0.3437646120836044,0.25941906474047816,0.2201881194702997,0.29371476336545754,0.35839430219749335,0.45301992651876954,0.5532368559256948,0.5527171134729238,0.5072809695515925,0.561445208929114,0.5929696116429373,0.4156719073963213,0.2505387579585472,0.18865395264742713,0.2953040107413054,0.4059607847481983,0.47027141849583476,0.47799563610376516,0.4594051828105492,0.45221113597461304,0.39480769219480205,0.3524747924354976,HB
0.7308613748620636,0.7361019606383228,0.7635216249450258,0.785129384681071,0.6939904978770293,0.7031697151376419,0.8323731143532895,0.8798319103800512,0.7887896864143351,0.765959237856904,0.7493606641694197,0.7026878249021205,0.6257050421743018,0.6268173957945407,0.6865385267937234,0.7321116365797198,0.7282138958392337,0.733040871466494,0.7678234240052366,0.7969828614262169,0.7992639879810821,0.7926972255622169,0.7827833392551535,0.7714309498317067,0.7805431635909561,0.8122292581575148,0.7287844652240039,0.6118211248493073,0.6779820551424032,0.8338534506791091,0.9091371569582098,0.8358192370275188,0.7767288919627764,0.7383225726426779,0.672020920575942,0.6002699169102841,0.607436493451671,0.6728394936483002,0.7217314285623408,0.7159020411818049,0.7167831600267154,0.6716002241936319,0.5813906687797625,0.5712666359798733,0.5910333326910977,0.6206131837573543,0.6099187766314453,0.6233828673740267,0.6412296433983999,0.5793250630936906,0.4590818067320179,0.38945574382324555,0.5064762896273889,0.658103179740539,0.783194577231805,0.7698177025000867,0.6742948547637728,0.6451848114386389,0.6185975254400122,0.5730832170032039,0.5465960339099705,0.591411835819621,0.6433282561315017,0.648277025901987,0.6884483088534865,0.7071264491238298,0.7289272674831291,0.7776244590529431,0.7956298156507811,0.7884327831956077,0.7776766751204556,0.8417422650170319,0.9124087506388343,0.9038794877717575,0.7980128565516176,0.7046048330894483,0.795814114003774,0.9320863969942121,1.0000000000000004,0.904770512480042,0.835417977156363,0.7969075242432422,0.7510221379497399,0.7128893201998303,0.8039431310818013,0.9014272680757229,0.9419247573409533,0.9365503529697432,0.9395843458842692,0.9523521798441981,0.8940940597120384,0.8849213466445698,0.9150319771265774,0.8988041823715611,0.8922521641746335,0.8946232419744278,0.8924997447638634,0.8704313196956099,0.7522567350171552,0.6832140155568625,0.8019749041974618,0.9375151965516202,0.9719149965360061,0.8609293172442443,0.774663180762388,0.7240314520163911,0.6672079210039912,0.6033446281780743,0.5804452650739349,0.6181445681017919,0.6529711536913871,0.6492724982947133,0.5913219552198137,0.5766158469746068,0.6136647638915869,0.6289529360623543,0.5573486778342347,0.47733187109894537,0.3814619579797611,0.22163988388146283,0.06622912870124864,0.000628928573749743,0.03641685146996387,0.171871347987405,0.33597794315271345,0.4362753304132103,0.3588097818541045,0.19654096859656445,0.05003315427416588,0.0,0.03669268524279223,0.17244271131371702,0.33650231136367204,0.4319447336923452,0.3356937691854478,0.17158590418005293,0.03698909618452895,0.009863978548056984,0.06783100065754688,0.22193200521773626,0.38102526751703225,0.45981819720041983,0.5266486893103521,0.5500257137825084,0.5151849706352372,0.4720179402480902,0.45434379293790084,0.5386058279806671,0.6013886442951377,0.6525612635153526,0.7034584083835118,0.6812029796471424,0.5560189123042472,0.4329332028184738,0.4106430850433931,0.5304286312075339,0.6827440747105773,0.773008520748061,0.7898191703120117,0.8021670676986052,0.8174084086257021,0.81542764263614,0.784228309857538,0.7970252772728785,0.8341162635207575,0.8314301052816435,0.8477125993015284,0.8510474800734893,0.7704873996054267,0.6598573523071987,0.5892886909776904,0.6429726721970366,0.6985074401874569,0.7426025398571405,0.7449916893500519,0.6400625421110839,0.514344967116561,0.4704800478941733,0.5771513966001627,0.721331940146928,0.8192156466382321,0.7741275216736949,0.7054374234905612,0.6670235022058306,0.6962428459968346,0.7026610034998924,0.6735833005876048,0.6274420738923543,0.6201104900329448,0.5782322838856326,0.5555053659597005,0.5377679351252969,0.48973247079379023,0.4434906145486237,0.4826416993496645,0.5248897716687022,0.5590332339486612,0.573326104949643,0.4577777946625954,0.3143712595107342,0.17252009698834447,0.06357316668237223,0.10864047156138268,0.2446605056350375,0.38692339364912476,0.5101434122547865,0.5379083158788442,0.5234437035379478,0.5136880890186073,0.4969556614192836,0.48517827727151763,0.4608320714993983,0.5131978408678739,0.6052061951666272,0.6300185483750691,0.6290257801545676,0.5812249641858132,0.5141283332354427,0.49525513927593234,0.5657526269332807,0.6239515230121255,0.6592856305560271,0.6942628579263359,0.6513681267407629,0.5233936556316183,0.39996785399752754,0.396624316023678,0.5179371602045726,0.6495848510225497,0.6811787079166103,0.6788471656634356,0.6883203522478865,0.6974736887718094,0.7055320680620825,0.704640802578473,0.6630955435454644,0.6385250667069813,0.6436676497329743,0.6144436732644922,0.5641270385915598,0.5109487874993293,0.5549537387591292,0.6195166397448131,0.6556666822810429,0.6668202672053432,0.6263051711498329,0.5440699581626087,0.4105657677896333,0.30628493443509086,0.35080268914854384,0.5060704201568353,0.6422561391054491,0.6514270897430827,0.6372351025913203,0.6416521652290297,HB
0.896621492149853,0.8611047360141857,0.8443040018055137,0.7900738815611925,0.7217589105984743,0.6965577999103298,0.7498095640077893,0.812341079356206,0.8489545446750233,0.8067856942532976,0.7218749824425927,0.6355802737578751,0.5820579205554788,0.5675338315622738,0.5590292861768154,0.4949474150975899,0.4062715673327313,0.29480868774223357,0.2896557891670244,0.41248046333853194,0.5408530409013652,0.6673159024442721,0.7888135200204873,0.9020833640728187,0.9494528408854164,0.9010867576736614,0.8896081457139431,0.8392250866713833,0.7640378958890315,0.7154438107266565,0.7496810623171322,0.8140266885576719,0.8689398389991925,0.8637998674305125,0.7992727371673616,0.7177416094926246,0.6574163288830759,0.66560272872636,0.6515660518075559,0.597478274676507,0.49439199055898664,0.3809475174533765,0.3026245810210515,0.3883215748930815,0.5227301430845293,0.6506281019985485,0.7756444616362628,0.8962216687621472,1.0,0.9847558296535155,0.9406858589235441,0.9057753861192275,0.8378339622298316,0.795624237197317,0.8358008639443057,0.8917446595071561,0.9218694122998929,0.8969042117471466,0.8199633408558165,0.7263616653120111,0.6441380699047059,0.607679513092918,0.6194212509999835,0.6112502268526199,0.5414696266435679,0.4313177617335149,0.3335105688497686,0.3765547277934935,0.5019265379322095,0.6307924714736304,0.7577758255133715,0.871686908529989,0.9508013800075776,0.9166088908736576,0.8709267902076152,0.839635743664986,0.7670423277895275,0.7233039579246272,0.7485783676847455,0.8153261604921469,0.8448209669425091,0.7964819205719946,0.7111877422294226,0.6313754498419821,0.5876129349835488,0.5841403680525521,0.5556122201044107,0.49041767928539404,0.3758987921741439,0.2630940493302507,0.25361214446893854,0.3798408665555679,0.5081987691226604,0.6274484200035482,0.7275197041168062,0.8396881551530258,0.902593169510022,0.8640514577127592,0.8383498485212724,0.786801702771661,0.7149830741392913,0.6842898884561879,0.7335582624828922,0.7987601046522737,0.8334379273220391,0.7876422403448604,0.7130245138885161,0.6239414281211073,0.5548763920259447,0.5451657276151343,0.551498728907196,0.5331507578975812,0.4972582967829071,0.38155536044935623,0.2601388902111905,0.3015649325012886,0.4274877035374316,0.5616877925006567,0.6849811188804771,0.8130958109826891,0.9129474097967649,0.9022718055591814,0.858598546893762,0.817719914550342,0.8042159786757859,0.707925096116361,0.5880689601634383,0.5023836783435405,0.38652936324089193,0.25560487640251006,0.183226032413776,0.07795470417760963,0.013113253250409684,0.08504895881368002,0.187794865581576,0.28935181038204716,0.4074303786678235,0.48646666825766305,0.4809323027585255,0.4835659280083915,0.5333954844559265,0.6141608564810759,0.7003517761766807,0.7578161223198037,0.7208662926387075,0.659476083901033,0.6167133222618078,0.6448130799193992,0.714662898867175,0.7797470915238192,0.7989527457982999,0.7919623930747299,0.6976400890082712,0.578063845375905,0.44617002113954163,0.3172820004816641,0.1803258335507394,0.0578411442677047,0.0,0.07882519305687241,0.20957188680487393,0.3238732321946838,0.43480984674118117,0.5093351881303683,0.5293791921958886,0.5365802551844543,0.5851888890017327,0.6599564400141147,0.7486736725038674,0.7734006777421301,0.7156846340604366,0.6672308867748784,0.6700645180636577,0.7184957842488906,0.7877375464601042,0.8152402219805448,0.8340790335400472,0.7571273107516614,0.6323910560382693,0.5036225143749622,0.37041594485576335,0.23878575771837784,0.11384934454510987,0.0783427595577284,0.17410449668530648,0.291591630885478,0.4049947613942111,0.5103653215558821,0.5543160591463048,0.5351667328678906,0.551017399489885,0.6152805198093758,0.7060537751553264,0.7927759360048969,0.8512074786207822,0.8237783298043055,0.768675410731777,0.7303507383503747,0.7636306535924757,0.8316656772146303,0.8784662593805814,0.8822630649718977,0.8994180462868573,0.8108392378783509,0.685672754397705,0.5462363236992367,0.4168897032746006,0.27945327217217564,0.15362310711815352,0.08501080033587805,0.15382596587696318,0.2702834470929778,0.3889642808339433,0.5091262644147894,0.5855909253546585,0.5955028253518795,0.5938236072654637,0.6360490893978659,0.7113515246636624,0.7891563950681286,0.8007478014016551,0.7440041443160483,0.6833579925277729,0.6490760509435409,0.6858373643327642,0.7588760378797827,0.8176320157886612,0.8251600805494137,0.819558359493195,0.7159653775195771,0.5967820961602612,0.46635438961953923,0.3374036492532171,0.20211679121701742,0.0769363073214202,0.0005152644438766174,0.055372062161267444,0.1642430287170371,0.2832503890807381,0.3937400720978035,0.4870077020383423,0.5062349459599149,0.5181694731317368,0.5604205671357958,0.6362803181431858,0.727316074902002,0.7842893491533633,0.742959913567518,0.6782723717637071,0.6293332434450605,0.6361647036325171,0.6982507671457583,0.7629469045696675,0.7845265429342358,0.8155314282204933,HB
0.43728671303533506,0.46845579005921767,0.4925341548206088,0.503746506370732,0.5040421044636578,0.5060003190495661,0.5126306404061549,0.518015577648991,0.5288613548381527,0.5253899131980928,0.5377572605120129,0.6206648667599999,0.7245602866421006,0.8278388816263571,0.937972436233188,0.9982253767332274,0.940951788026779,0.8402934306650343,0.7273763152354928,0.6148198273806615,0.5022686377952605,0.5005455004002819,0.5444952436247181,0.5443105993814039,0.5636744368097792,0.554522474912257,0.5068399431184227,0.4800891881387055,0.5059705593267338,0.5350837955605012,0.5578270550985485,0.5746350457020641,0.5820789171025944,0.5629132721068326,0.5736245089986376,0.5628225017937569,0.5589209664072907,0.5634676411420703,0.6210746613165536,0.7156416843498747,0.8290214169302548,0.9401350012766976,1.0,0.9472271988641672,0.8512233363481667,0.7406558880375704,0.6280295464761019,0.5547546912632519,0.5824427286453764,0.5870423062396677,0.5830377039444579,0.5747076112500871,0.5289919030344823,0.4851220595802541,0.4946579133694189,0.4945409360415147,0.5169389488595431,0.5370855560368155,0.5263803132558156,0.4955029723034521,0.4856873917355009,0.47690011423383716,0.4742611083815671,0.4739881214640964,0.5002302160971452,0.5823831559848647,0.6855860699441001,0.7905400023708107,0.8335162965105436,0.7716819725308843,0.6743798881390903,0.5553023139424522,0.46308712191071777,0.48460088339019425,0.5122281283398573,0.5119985184416249,0.5111451484327909,0.470725780669913,0.4613489460618716,0.5099057502462996,0.5343550840067124,0.5588182859991653,0.5649620945687279,0.5431025275302708,0.5325234076460892,0.5613022105855339,0.5525066781632546,0.5519832648757665,0.5408211719184997,0.5309343360442194,0.566518767925476,0.6643331905956176,0.7772357001366452,0.8727775665964033,0.8640928696458334,0.7756798464675789,0.669129995909338,0.5605052835118585,0.44877055192218895,0.42324524669551167,0.43442041193364567,0.46389152773940845,0.5028467660646041,0.4907353059624775,0.4481788340394419,0.43036434289494396,0.46920998948036274,0.4960979265934058,0.4946570504422767,0.47547942476252913,0.4619618324604815,0.4329391861819518,0.42571286360064153,0.42445355187346756,0.43556715387561873,0.4309919847907464,0.3901398427952709,0.3522631780273833,0.29367261287367485,0.1790428927879999,0.06140995630718393,0.0,0.015759886256050848,0.10409740984599347,0.2250897154978202,0.3222818771333853,0.36188508623593796,0.3536871009737892,0.31798293383381315,0.21928490225995478,0.09840793085450938,0.012642437803378481,0.0009091319723100177,0.051910945067775494,0.16666390749800497,0.28324736389198346,0.3269042253456682,0.2471965509159837,0.12645636873799715,0.026310829326174456,0.005081361971575937,0.04448010429308491,0.1562183951406113,0.27446483096866947,0.33669713843209426,0.36220804179524446,0.37353000412144644,0.4052615781367561,0.43174835124777466,0.43636114856405683,0.4064570711370554,0.3530884636750362,0.35668974346672,0.4005643551050446,0.42926450947209016,0.403940817920617,0.36608303600483927,0.34161737510763146,0.25471517552566825,0.18293453853451203,0.22412648701436888,0.33472453773015065,0.44294704461571266,0.5477920187583312,0.528187318725811,0.4593245444903684,0.45704332097150324,0.4768419297162949,0.48555061850509995,0.4859522330548196,0.48384228640484395,0.4629565297667577,0.47934684398285654,0.4956525329168948,0.48225354833619694,0.4552019837934105,0.4120231286199121,0.3941710349608982,0.42591113903553923,0.44639707007320917,0.44088786878063235,0.40981535278920855,0.3232318103303169,0.24331048610305395,0.27621455336681855,0.3801879374955557,0.49487159237989475,0.5940730244707031,0.5815185829104648,0.49520576790023796,0.42731137151962306,0.4062716961024697,0.4066067007295162,0.42001397493691783,0.42373660958794535,0.4336812493063249,0.46181857569597895,0.46902203140172505,0.4506888854321547,0.4334075162793227,0.4225366343337176,0.42805861164751047,0.46774515342818956,0.5051229699643875,0.523605187847374,0.5188616964561481,0.44876016670734264,0.33969952496163636,0.2970548636201924,0.36849832125064674,0.4786066946017651,0.5916711291168295,0.7056585734258825,0.7730255450219286,0.7051962258881748,0.6090742481673299,0.5240938203500836,0.4840758140756156,0.4910880630060812,0.49832450228804115,0.5115357969351177,0.5052196491708214,0.5125108594656016,0.5094584899983898,0.487181577452954,0.4626833310288472,0.435709723412828,0.415761628984606,0.4387694117658265,0.4808098110205199,0.48875202864108314,0.4892475115466408,0.4429608687562139,0.34532036412183276,0.2663758029800056,0.2805436467214846,0.3839922118026369,0.4941675483084098,0.6156861327077703,0.7341412196953749,0.7603216503676369,0.6866720905582988,0.5935260012017576,0.5045031982742514,0.46622518618281283,0.46937133125532027,0.4627448040209323,0.45954262685789793,0.4477162155899257,0.44936305828264755,0.44883736281850783,0.44000017749766807,0.4232187140468815,0.3976851740774796,0.3516846009150423,HB
0.8743593464742015,0.8486450607037916,0.8138823062477066,0.7777864283253955,0.7406847309232442,0.7040129454239356,0.6660627359453954,0.6273029669427534,0.591175827314874,0.5516547289372871,0.5117897115144083,0.47374890991225693,0.43708242555663457,0.3973420940713668,0.35745446018973837,0.3176243047780458,0.2864718006355267,0.30413204273523475,0.3434057678948681,0.38329310252912485,0.4231807364107534,0.4630679669482942,0.502573116384363,0.5386782927257108,0.5774984022886009,0.6173813431825333,0.6572689770641619,0.6971566109457902,0.7370441224424367,0.7766771050103943,0.8129804641789955,0.8514796189094628,0.8913569865803761,0.9309016982208628,0.9656318805238536,0.9776483202641301,0.9516614736171323,0.9222818622067718,0.8979456931513203,0.8995955126165569,0.9056233211522485,0.9158598955069241,0.9200832495283605,0.918541351812452,0.9163503031113178,0.9076007700866495,0.8943047574631288,0.8863103878646386,0.8918428709404347,0.903733563339054,0.9253532494479835,0.9509990837993796,0.9704669226257705,0.9699636686594807,0.9490316040964771,0.9234621912391371,0.9014869197166127,0.892952580374847,0.888449226016746,0.8667407662392012,0.8322259333091994,0.7948480200697224,0.7581622071627865,0.7221491436748182,0.6833696798101982,0.6460596543823048,0.6087189240044881,0.5688877062624454,0.5291755099822775,0.4926323908439244,0.4544452455995178,0.41457470211806424,0.3746871038772236,0.33498571450732384,0.2984809299389031,0.26290314773593526,0.26514538703506785,0.30321122756378827,0.34309737672771,0.38298501060933854,0.42287199471287706,0.4622994957285337,0.4983392879935603,0.5373015975175779,0.577185617381119,0.6170732512627474,0.6569608851443758,0.6968485190260043,0.7366536135696151,0.7737521930759166,0.8113178284628478,0.8511614919161555,0.8910271156654103,0.9290063406537997,0.9638427494208652,0.9716273196448373,0.9436429458905374,0.9154505023644222,0.885750010873529,0.8747264028375056,0.8673364320096004,0.8623942048808826,0.8606029513940804,0.8546128863134029,0.8568910503809875,0.8592982929452048,0.852794263311284,0.8471117050808105,0.8533743875697913,0.8688935677374319,0.8943109438559399,0.9192888366147882,0.9389163129867404,0.9432461665900901,0.9235556453201161,0.901576495210059,0.888526059069959,0.8907399153938332,0.882045372700673,0.8577798060035831,0.8221334177688668,0.7840487572371346,0.7475556149948769,0.710248646250582,0.6730720374829355,0.6334467891940545,0.5969460398914326,0.5587048487668913,0.5188330077736497,0.47894670840494746,0.43970002176415235,0.40874328438133223,0.4190612242081253,0.45760634277428214,0.497492507463138,0.537380141344766,0.577267775226395,0.6171554091080229,0.6570121120986838,0.6948141642171018,0.7316927392942918,0.7714683819981748,0.8113560158798039,0.8512436497614317,0.8910793547678741,0.9284720972143131,0.9656629122503333,0.9999999999999999,0.9992259622940961,0.9665633600310054,0.9366627264081736,0.9068039491610282,0.8956122837329292,0.8951511150813284,0.8934313158912794,0.8939095143008894,0.8856119252829243,0.8836106864309986,0.8762878838564343,0.8663780349840694,0.8524743311091433,0.8436799598048512,0.8499882804262765,0.8669189420224179,0.8914241996064807,0.9157735790824942,0.9341188235539037,0.9329561028078874,0.9127019529179252,0.8903180277946753,0.8745695956522518,0.8689573755078264,0.8570111776166629,0.831043122644714,0.7986217427948339,0.7631673847063605,0.7254067388009906,0.6855518153005176,0.645665718728773,0.6064564866033639,0.5704699746157421,0.5312373098949654,0.49135209971808336,0.4519700944445576,0.41595911045601786,0.3769231652100349,0.3370382356385859,0.29715250034198903,0.2592644079197496,0.2576619490689378,0.2912424857040642,0.3303854262354312,0.37027108405283615,0.4101587179344641,0.45004618381090267,0.4896413601085472,0.5258721196859418,0.564480021983106,0.6043593247062438,0.6442469585878728,0.6841345924695008,0.7240219566158387,0.7635597288868307,0.7997098301324485,0.8384533078779997,0.8783290333477979,0.9170299111699632,0.9481289625627812,0.9446606568758588,0.916004524983578,0.8877125525786836,0.8749221618230845,0.8812681249972943,0.887647378338538,0.8951391231825561,0.8954971130383559,0.8952276557004685,0.8954602064243417,0.8884005617849898,0.8740165251243958,0.8586865205785068,0.8645747686277389,0.8769452486592765,0.8804325531700253,0.8776647818715217,0.8768266779598709,0.8728497792379004,0.8678256732383358,0.8592102636711486,0.8559811375200151,0.875046667648558,0.8866622566833592,0.8538424250099103,0.8139850669286445,0.7740992392663066,0.7349018861202202,0.6989208242730367,0.6596707076472762,0.6197844601568647,0.5798968262752368,0.540010331459666,0.5007269063502735,0.46473255978577055,0.4255819293193961,0.3856962195034559,0.34580858562182804,0.30592112325463616,0.26632885513163107,0.23010368013817542,0.19148741264357308,0.15160797885004826,0.11172034496841915,0.07184796334526564,0.033587684923834626,0.0,HB
0.7015637983267848,0.7622147513833348,0.8237778573966699,0.8692365251309568,0.901923010023074,0.9172590087890882,0.9342063211220317,0.9647550935027058,0.8913132067498428,0.7759087969525682,0.6553300773182564,0.5445366459069763,0.5607201021867394,0.6775399590879845,0.7882226270799904,0.896277564265286,0.9974223334817971,1.0,0.9420405085294674,0.9186627180316016,0.8710174862607194,0.8245429749289843,0.8154408615569984,0.8570828468511489,0.8614795895850222,0.859210494635692,0.857885980552747,0.8484403097633955,0.8290269742491385,0.7870439643556608,0.7277249718861403,0.6790914860605031,0.7168504352541385,0.781170444117504,0.8339177262866744,0.8698151149296569,0.8839003000813856,0.9015357520022076,0.918823322434787,0.8425997352685268,0.7294631561030855,0.6023949890623932,0.4749148702143007,0.41249960706846256,0.5129763787592707,0.6303534965755708,0.7445571771096922,0.8522764959848046,0.9537407780639926,0.9784359353296868,0.9175536798214616,0.8910651856784271,0.8418466819909751,0.7936173974555487,0.7820192470983103,0.8210900645957051,0.8418526426938198,0.8476096596194438,0.8445942392806609,0.8490284884975048,0.8437946379731103,0.807253409701127,0.7437706389268102,0.7319870559215729,0.7965830343537963,0.8552202944685701,0.8881094834529919,0.9025809015808295,0.9226021923606473,0.9520902180405262,0.9209383269241522,0.8155646210492522,0.7011388347236034,0.5973962427120525,0.6449581218561189,0.7567081651477361,0.8643067525240222,0.9717839169004749,0.9977836170867218,0.9517102214448214,0.9230981417390645,0.8876071897710394,0.8308902767481348,0.8220711855784568,0.8668061890284098,0.8753653541445199,0.8780216148226252,0.8644219256183638,0.872534215158244,0.8663802154890843,0.8457450846020311,0.7970747820197506,0.732311125173422,0.7410084467712394,0.8066851844943468,0.8612880335566198,0.8952588922249971,0.9157827514133752,0.9166637350879592,0.961254209506686,0.9786507836055027,0.8788365683428916,0.7621349447396191,0.6408078091511831,0.5321842984950838,0.5468617344015643,0.6637386530011722,0.7745112535227578,0.8847023171785495,0.9848724087493497,0.9847783269278407,0.9384713613985642,0.9339720625824537,0.8975904895626439,0.855427961609037,0.8034958305709252,0.8216189999619896,0.8660653722583951,0.8493842266875178,0.8028134103128028,0.7528329891101295,0.7517819702104496,0.8000274947814141,0.8469416210864669,0.8750832476427521,0.8521808608696779,0.7569640257113286,0.6486293381321322,0.5283018982429146,0.404909171018784,0.28764902430156747,0.16007409153555852,0.052854960263294615,0.06114019560952322,0.16755871032823988,0.2943397458196366,0.4229066849558105,0.545918230413367,0.6634673194716791,0.78365781993972,0.8687951733628427,0.8607064900288282,0.855643019954833,0.8432147696426839,0.8068195181281927,0.7468247230909144,0.6806024790432228,0.6605822749936943,0.7110396550752816,0.7752019198626896,0.8109881101923659,0.8190282201133261,0.8123269334874408,0.8157731020878041,0.816599135868612,0.8084668408275011,0.7651397530183175,0.7705166208350622,0.8278186659067295,0.8676552459629576,0.8877357244081665,0.8543676310936754,0.7446044669873171,0.6290403339117026,0.5038076641345453,0.38766810695397647,0.26245994967460273,0.13755460715372303,0.07002425491184505,0.1371045246024174,0.2545782811710269,0.3716758284272901,0.4886020738848509,0.6112636287431958,0.7285259521110343,0.8373765096099048,0.8700441747040921,0.8503085900179821,0.8405530859274637,0.8138821496778221,0.7527117253750801,0.6845187111764761,0.6493067110923483,0.6819320734482357,0.7492926447039077,0.7929919795672284,0.7921235368167983,0.7860293472183106,0.790962023696371,0.7878867891043719,0.7590635993191257,0.7134777276442597,0.7057689684211526,0.7575051651190008,0.8099045144590611,0.8467588553934577,0.8354506175485907,0.7430756440511006,0.6324731898524663,0.517789637147493,0.3907983600387075,0.267271915271468,0.1500455284861535,0.030908188866411113,0.0,0.09832329571402676,0.21708144085783498,0.3342514950359252,0.4543466272070993,0.5703345810794831,0.6928245936781297,0.8030458852707754,0.8400826820044487,0.829089501345992,0.8204648062418012,0.7830238601691231,0.7323137833289937,0.6672803656528399,0.6160275986951822,0.633385099135122,0.6966970122025189,0.7554433821405624,0.7889187165730784,0.7980589112913141,0.7976785731506189,0.8007696342052704,0.8053664431193259,0.7755167905977585,0.7446803170916412,0.7752333500000392,0.8268086294575387,0.868931397717442,0.8786121688029849,0.8272735720695756,0.7102434120598042,0.594491002498831,0.47017074290247507,0.35438199223400746,0.22791948972044507,0.10423852891745922,0.025304238073810215,0.07444357919961098,0.19109957423997637,0.3077148386248414,0.4303598920876057,0.5462837058688113,0.6680164230857351,0.7830947192197781,0.8590077975640953,0.8597174266167866,0.848609409034438,0.8130178217207211,0.7630068899920999,0.6950837883313414,0.6436770067877813,HB
0.8761865511006138,0.8194636479056044,0.7425333924062413,0.6581704175051749,0.5679031573646681,0.5378871430333262,0.6138948645234604,0.7101336932741128,0.8067404425462047,0.8972499142352036,0.972410707020492,0.9526369918101857,0.8903700245722136,0.8517273294437152,0.7980680121583686,0.7760038710114922,0.822820417239306,0.8452415566081005,0.8337102509342552,0.8232745196919632,0.8118903622052446,0.8142784308836978,0.8170770508000277,0.8571604475058646,0.8941901720961288,0.914998716506123,0.9204633008508795,0.8881218002212093,0.8214347947951025,0.7405795315352658,0.6539775702532594,0.563929239093495,0.4683175637660476,0.3956943567088328,0.44606198933109364,0.5438448673792845,0.6386307601510471,0.7172912129379186,0.8086732583676567,0.9006129189323132,0.9870680841787783,0.9999999999999999,0.9378309083113888,0.9063367962404553,0.8558675795360083,0.795780871076965,0.8028209884381169,0.856662462952907,0.8705633037647013,0.8536270123106883,0.8302125116049835,0.8172840538281904,0.813733733341451,0.817302150357914,0.8482313975826988,0.898084040361942,0.9177920751095435,0.9117225735970319,0.8882268410749744,0.8283389595498759,0.7480523545026322,0.6567837873276045,0.5657839591943962,0.4739547651109145,0.3829955378794435,0.38969598162230523,0.4763187291278469,0.5733471324669653,0.6711390098558377,0.762380233552819,0.8585294937249407,0.9473920558663448,0.991183541889206,0.9327049648169458,0.8846230771659763,0.8398804438656574,0.7854011422013351,0.8036077912032801,0.8531905516703654,0.8597246315559052,0.8428802497625657,0.8165272639164104,0.8017099881864148,0.809496576629562,0.8081535603333313,0.8331993153214495,0.8750543533238594,0.9064124013619176,0.9187695848729202,0.9116125171661654,0.8710062812794394,0.799407867489493,0.7151589364297039,0.6291628222158586,0.5405000132100465,0.48251186389676237,0.5481502960601053,0.6404579779067513,0.7353634945854476,0.8299085762929669,0.9212547198489708,0.9936107070577306,0.9684180622146635,0.9013347627304261,0.8621731007310477,0.8087078734843293,0.7890066820728946,0.8369643588314938,0.875129761599987,0.8727894730686715,0.8588946278623285,0.8592277236395055,0.8575196855636523,0.8571877983277204,0.8904448727164204,0.9272799562717812,0.9276207675772209,0.8961873238151151,0.8578760684892907,0.8249402256995163,0.824287772534772,0.8252374512312207,0.8233680414336889,0.8377163719490092,0.8473874746452007,0.8116424327032613,0.7572887968955576,0.7443628053822086,0.7930376490082885,0.8446093322050731,0.8762844544100309,0.8486881888583181,0.7611214190560806,0.6638250824614412,0.5649235820857043,0.4660157768792731,0.3671976683493573,0.2727680079422897,0.1804837503548572,0.10772755772653297,0.1372464817106166,0.22500365930384192,0.32083772686443435,0.4188562348661172,0.5102332502483563,0.6044969916166777,0.6915331248240247,0.780808811144322,0.8516349070879178,0.883403824696709,0.8760195144062249,0.8448814861895363,0.8041397442013875,0.7766230532892394,0.7741173229080115,0.76592783567199,0.7711659184154073,0.7961338253262665,0.8206586113974116,0.8092677935580513,0.7600562937501009,0.7289782526100544,0.7695166607287661,0.8309211351604809,0.8617721596890547,0.8387326682501736,0.7459765984668282,0.6515630165270033,0.5583995281986388,0.4598028886453228,0.3655604875802999,0.27222142780870284,0.17408692871061493,0.08265701677682957,0.00159050866273458,0.0,0.07559619999081002,0.1735020451767647,0.27240900924115585,0.37131378733775844,0.46902611192602917,0.5598773102671167,0.649897192459654,0.7356077100506168,0.8126354954665455,0.8696462510154491,0.8859390650772988,0.870785434233201,0.8250990379385977,0.790471766688294,0.7819657620944976,0.7854487131327789,0.8009825287332811,0.8230724947740443,0.8293394120184961,0.786669967074925,0.7423648000529238,0.7680181938373424,0.83125994447039,0.8766156887159159,0.8779061404810528,0.7983543598817621,0.6996641765800143,0.6046923183180105,0.5120209935085395,0.41363860265122254,0.320644619565421,0.22603823408400958,0.12831826768994026,0.03974270630955534,0.0012629069921872293,0.06935198301860412,0.16308885252148564,0.26102463081330274,0.3524178672707571,0.4490265520078408,0.5425164466046112,0.6343067142239919,0.7250440111588062,0.8099706413126789,0.8684449740030861,0.8857985924156534,0.8710498111967345,0.8349798359286141,0.7914957246861026,0.7762076080979289,0.7790140585978921,0.7796273473915144,0.7946915187817404,0.8074449291268423,0.8034534714028848,0.7558577180841651,0.7202915072688904,0.7528844224705536,0.812172977632372,0.8543318328555424,0.8673931004415326,0.7968023043070488,0.7053207657578296,0.6070114111292629,0.5081042046266878,0.4091981404440087,0.3112123734242792,0.21990955829875458,0.12632984403455982,0.07224722190754174,0.12832450511927396,0.22015747325801838,0.3145869332843777,0.4130050859379243,0.5052182643921826,0.5986653058881292,0.6857667574619036,0.7701459127102251,0.838157918892659,HB
0.8236912634585636,0.9165031143189935,1.0,0.9834954257878796,0.8877644150977675,0.7848072324334572,0.6759907544121786,0.6125500079863762,0.6576908846088387,0.6444323605627051,0.5698711500237588,0.5349437425938115,0.5524570475929718,0.5452394291934457,0.5071025314510416,0.4829145575597682,0.4888585914752652,0.529366620836722,0.5385737132611816,0.5214471242103391,0.5281975051648331,0.5277842995743578,0.5228636528513628,0.4912303852721345,0.4764007827972394,0.48326291836427204,0.4819019943061682,0.49453803349398484,0.5756976350715957,0.655942478490164,0.6250989702205461,0.5529858281521047,0.5988799708000103,0.6590360333971161,0.6141682844817793,0.5349477342974267,0.49108025499385466,0.45522089778109187,0.4538929740659108,0.4537145221748866,0.4426579330271503,0.43000979314137044,0.43278495764732083,0.48411955006975793,0.5685573808872224,0.6653796511222003,0.7637701356965434,0.8601670218808071,0.8978254754242379,0.8301574310861839,0.7277354898389534,0.6277718609754439,0.5258627894646604,0.5082159387200642,0.5055303709314485,0.4824820050759957,0.49118399505118626,0.49933498854340685,0.5109194583324204,0.5042951016314419,0.4949687950258803,0.5122626013948373,0.5501549672080865,0.5865218524838083,0.5887027915401424,0.5583549204241152,0.5554241819197925,0.560801696068213,0.5395680291735463,0.5046204499623879,0.4361037605127551,0.3531739197755739,0.3684589139285599,0.47102417399253316,0.5706284246870688,0.670707196515818,0.7283173549577722,0.6840040801104217,0.626102421458361,0.6117698606475424,0.568064198028059,0.5576268922586998,0.5878950668302356,0.6045481497558067,0.588075642935447,0.5648765107003033,0.5719931092813457,0.618497709360617,0.6927362607882817,0.7749790545355268,0.7683140306781842,0.6808724798042842,0.5944929776145047,0.5598764550380078,0.584308260515066,0.6084251960525284,0.5926894159874978,0.5668685921875838,0.5540269438805971,0.58816955696336,0.6079925131992767,0.6489186262816542,0.7388039468062506,0.8359989692173571,0.9205492577411833,0.9084282842325107,0.8135016853470312,0.7118661732928881,0.6075075916987216,0.5533723140108258,0.6216500964819414,0.6440126536807518,0.6025697965773014,0.5758196945382199,0.5261866218494218,0.5192607099926794,0.5588658983963493,0.5675689151252423,0.5420266837807017,0.5214093716478923,0.5242228176778281,0.5280000639906492,0.5309724901820538,0.5124954844548029,0.5061185039143252,0.47331236045172,0.45288283398352913,0.4727734180579084,0.4780514959093316,0.47301444156475636,0.46961714900103724,0.4813459348379032,0.5065198866933565,0.5079469506431145,0.470483339283954,0.47043038166801177,0.5140160648078509,0.5458371955312544,0.5412864897504832,0.46921699414363616,0.37038736703063746,0.2752362790434577,0.26613956422603025,0.3525706384762044,0.4633921630853792,0.5737079719666034,0.6662398943011909,0.6618171554429795,0.5892172479039512,0.5574832065866717,0.5271857360777772,0.5003086903393328,0.503725476791328,0.530584166255835,0.5535014564977114,0.5390327706085709,0.5147551275326121,0.5260717467301728,0.5935684565205679,0.6061371819412655,0.5164057101581938,0.42353220693874105,0.4022572156713653,0.4714302136832904,0.510172887085766,0.5276837591726977,0.5493802616495738,0.5404611851128545,0.5136208566291489,0.5138767542188085,0.5445585072901804,0.5630594699805545,0.5939618371742821,0.5778958578676225,0.4812792507765238,0.37595998939999165,0.2722165781699357,0.16877126902113426,0.06379095405619628,0.0,0.050940468273325656,0.1494403417291359,0.24709670245593118,0.34093477826855345,0.42956670985959455,0.4763188971224648,0.49962983078890444,0.4997971359713702,0.504406452947415,0.5144089245721646,0.5017024899004472,0.46243737534403584,0.4347620949115605,0.40984809269501143,0.43112408855288065,0.425892253943811,0.4299064575615912,0.42922489924795526,0.4092384257652255,0.4151544836698857,0.3438060253299109,0.2405964406848926,0.21158718880558824,0.29619634123997196,0.3960506210223338,0.503515243355348,0.598577818584686,0.5738700898735667,0.48805417394925277,0.4209609338938063,0.3756849558737496,0.36369288367998553,0.3949371211432804,0.4033057663667634,0.3980851168521027,0.39930605792059515,0.43825157610272436,0.4584367776326719,0.5043200292540586,0.46288754999516346,0.36462384427234884,0.265653894850272,0.2440573485955566,0.3229417508466219,0.4200340566449263,0.45799927909749316,0.4199977423622765,0.4327842270083404,0.43541270769939144,0.4313769800300604,0.4337876392641409,0.46602872265895545,0.47660447755782354,0.4685829819110894,0.4781937644122465,0.48682323584505216,0.4704779812007227,0.4324134248007758,0.4298244723279785,0.4578667770749858,0.4846278533737509,0.49377242828534484,0.4867306035994652,0.48975996869803895,0.5366667129941405,0.5192591599221346,0.4196550874037235,0.3257891554965284,0.2912915789167463,0.365760166852676,0.4665339410755558,0.5774818458666755,0.6755633720883965,0.656230710280417,0.5769732785251893,HB
0.8409938021542664,0.8576663782944811,0.9089743484281718,0.9391140843639889,0.9400677464297769,0.8801676352195893,0.7831311255259665,0.6838964872256006,0.5820760165306735,0.47590827934267144,0.37593931427824456,0.3542466746056372,0.44863246316151595,0.55215761096132,0.6581435544788152,0.7610331886945196,0.861110019818299,0.9547149013961704,0.9629550469184007,0.9106898345867547,0.8603369112082295,0.8306847764721026,0.8679814824345315,0.8775619327557791,0.869692041911722,0.8699936639315724,0.8484190590732712,0.8488110479759885,0.8937993951892225,0.9327988846222395,0.9434672434773166,0.9039906693105597,0.8171509111517803,0.7144237987951976,0.6122287062342626,0.5085455198470739,0.4053796913953047,0.32433881245863394,0.37689899036748176,0.4781992098935648,0.5828877301939295,0.6863787699748336,0.790409459225552,0.8918640139417067,0.9734443561931929,0.9602335035245044,0.905143331497037,0.8473270819120893,0.8180965119036852,0.8572383981328415,0.8720323455609271,0.8686843028698463,0.8637246270062648,0.8420657889229313,0.8596779521970961,0.9122483453181025,0.9512165350257777,0.9561635227129568,0.909024402499715,0.8190838860910379,0.7205721905293392,0.6196549640755924,0.5153556977427436,0.4049829816210959,0.3340140246395673,0.3991838976405886,0.502275577696824,0.6087412570688322,0.7134420193855502,0.8140538060931364,0.9003152022130672,0.9857863285914976,0.9871814875147231,0.9245079654088173,0.8711032199252029,0.8337317343901549,0.857480164603565,0.8626575913982508,0.8488862350373982,0.8358408506133352,0.8083112097953935,0.8195726899057445,0.8702241854165185,0.9105575677186792,0.9394093984536174,0.9091407450822913,0.8263783170765786,0.7300287787275586,0.6283119162729742,0.526356711493001,0.42530597730341957,0.38120111573250304,0.464552322041037,0.5680426032117345,0.6727697970277682,0.774914854766019,0.877566841425311,0.9768682762824654,1.0,0.9387649682489876,0.8851785531974374,0.8431415194120828,0.8589949876323246,0.8787887245422126,0.8718656112439496,0.869341656485938,0.861616593290657,0.8973520629920235,0.9377526350208047,0.9479350531499631,0.9168856895575124,0.8373849848483341,0.7493562734362498,0.6601511177048225,0.5588311254925127,0.47477143555167234,0.41363568690126407,0.3338125489963599,0.2258121806304756,0.12385661223367417,0.06605954048287499,0.1326674290443417,0.2347360568545549,0.34194724421362044,0.44538715582820654,0.5412192152632092,0.6340589598896875,0.7335739340362954,0.8294414973956705,0.9021533599439207,0.9116770942593657,0.8802552727713835,0.8382350898560378,0.8290832352158304,0.8371019635344519,0.8373113258878258,0.8348560767548303,0.7934734751500387,0.7882158923010323,0.8417575834087105,0.8928317925339337,0.8821315591948928,0.7910125267929973,0.6890747621611539,0.5844725119239051,0.473565903545869,0.3651798490347167,0.26128569420618497,0.1532730337576207,0.06900822430563025,0.09450754274984008,0.1942501690063585,0.29780028326054175,0.4054401225174704,0.5085330466839193,0.6109387329918143,0.7124599948334172,0.8161658155907774,0.8922979609439416,0.8870979367681415,0.8486549602779039,0.7962677350308875,0.7640097521278699,0.7845633396308451,0.8065104802771286,0.816003357067566,0.8275077978878538,0.7949225531342161,0.7921347300042789,0.844161842395502,0.8890593326930465,0.8526804090873785,0.75340930504679,0.6474459274657436,0.5432087801482324,0.4390324058804749,0.33595986783557663,0.23095785762753884,0.12387031448432317,0.024168750760806823,0.0,0.08750897281853431,0.19023578128926077,0.29618889038159213,0.3994656242486574,0.5075510864804369,0.6105242662021841,0.7131536204059057,0.8108964605340274,0.8977575391477963,0.9244786806922498,0.8958233858656897,0.8441198502977885,0.8066602471465028,0.8135544365776641,0.8347600677311975,0.8393632128555335,0.8284246918374423,0.7840020684011664,0.7813546147385639,0.8372824414404954,0.8869563546981831,0.8594644582386639,0.7571920474513842,0.6541148309887916,0.5511866665401057,0.44655517789455024,0.3423037046702835,0.23884079375906198,0.13057417105249636,0.03326331268203009,0.021604445620098556,0.10995327068525063,0.21341376195191653,0.3200433396564628,0.4312088425267986,0.5407078656042485,0.6427148597143755,0.7433223523688224,0.8389038042268795,0.9017630735531923,0.8985895594033961,0.8535143489836401,0.8100819342443242,0.8059698603165324,0.832614153504526,0.8373558483503405,0.84510333817824,0.8203507960351186,0.7845102430938711,0.818532887801467,0.8739460199004387,0.8861989723486503,0.8112713672810246,0.7092333156317427,0.5989771147812379,0.4890336483529578,0.3861094013854762,0.2833322020121982,0.175931783402262,0.07273610396779473,0.019563315164178308,0.08932637989884618,0.19266853521499794,0.2966137133379436,0.40206252756971494,0.5080757451081073,0.618978134514125,0.7237049111965883,0.8194400073070307,0.8942560133622985,0.9059774071843723,0.8649069868229178,0.8147022885422375,0.800204696324111,HB
0.5977796640273603,0.6044436934822213,0.6223408798619281,0.6481007772669325,0.6538274499534928,0.6663793494330781,0.7083641738403421,0.7780111087950821,0.8326721661301857,0.8101851173012471,0.7428430112181346,0.6677770881049097,0.602282152605313,0.573724826383216,0.5668827957995739,0.5335743130728625,0.4474017276405817,0.3526777136495989,0.3619213770973877,0.477896457254646,0.6017560773111206,0.7164395521156801,0.8318332140685905,0.9317869270220256,0.9368828208938322,0.8407265628437686,0.7444701107623808,0.6879416361372686,0.6679740150853433,0.6149015200399126,0.5707939014233983,0.6019479676094526,0.618868059040258,0.6398280310408087,0.6295425487841815,0.6353861357082433,0.6647030244247336,0.7269820422842952,0.7873694419532051,0.7949529231135268,0.7335958417651716,0.6594873922686504,0.5923271160657904,0.5554264613889419,0.5390326241029553,0.4999649632363363,0.41920113920832147,0.33153274315502435,0.3637928245330171,0.48445383194723,0.607733925312107,0.72074777218107,0.8405663089420354,0.9505801688670368,1.0,0.9237928446050989,0.814227806925683,0.7145337720800957,0.6691221720513574,0.6350883173633162,0.5888579716741789,0.5928513458723854,0.6217264325041074,0.6232254115084483,0.6324238724595981,0.6423617418581236,0.6890352499707806,0.7589897189581123,0.7897086809906253,0.7425464284112424,0.6747448725191649,0.6113633225262651,0.5684789225761433,0.5645420618306511,0.5538752350518017,0.47583959899452344,0.3723155203931823,0.32989235873144596,0.43075288003846257,0.5526586012582833,0.6650367799242303,0.7856239833396175,0.8958929909175875,0.9712475912044849,0.9195624179078816,0.8119099536866776,0.7159347133661114,0.6755289865762903,0.6363650646891408,0.5809357335998158,0.5870248704794632,0.6026645460107334,0.6110321999428363,0.6085211140140077,0.6193927465116764,0.6575171353382192,0.7331524785159691,0.784954869607684,0.7607438066572692,0.6884775650824393,0.6182243909527281,0.5683242535744522,0.5494415185931927,0.542538147222865,0.4889143607253268,0.40116291692215356,0.297322850403579,0.2770418189865138,0.38933562308357406,0.5130264963976896,0.627100743259545,0.7448473910113771,0.8556798286313341,0.9355389655553514,0.900679309066732,0.7944389598690993,0.6970901916594694,0.6515981565528146,0.6089382699678749,0.5452098780470918,0.5426504779609078,0.5792912147766236,0.605369193137915,0.6094178925600793,0.6100239616518315,0.5750254682139437,0.5543830576660316,0.552677381322638,0.544767113872791,0.5084843009524569,0.4702332408953289,0.48368975128091884,0.5478144654349362,0.5945758794886977,0.6245207872301322,0.6973100788203026,0.669242311378468,0.5548664474126648,0.4406180995978679,0.31685121962881446,0.1955574832983773,0.08415227230885103,0.0,0.04751988878948232,0.15613183386532503,0.26307789035216933,0.36487547121084507,0.45662764378146425,0.49501218142012293,0.4957113245839664,0.5306624948233716,0.5679098679642851,0.6399669528798331,0.7114224535903433,0.7073777348889871,0.6348731685203575,0.57803128575169,0.5567057405991327,0.5522572533864234,0.5534862547502133,0.5330574090136739,0.514859396061778,0.5469266602579763,0.6029053343676445,0.6214902684243477,0.6602085826498083,0.754442623235827,0.7443139901609945,0.6267562730143235,0.5127420537101419,0.39358236215592957,0.2697182990993996,0.15564415828456513,0.07687661963328596,0.12510237620693454,0.23400054688457672,0.34469898011580424,0.4449585057176204,0.5067793743094136,0.5060409699458726,0.5294352154944049,0.5767639591046829,0.6401817283335203,0.7060465413953421,0.7075592030742901,0.6427434591561276,0.5933699503806413,0.5714099494105791,0.5678930545249563,0.5630553992699814,0.5382845820219262,0.5158272561981723,0.5459060697454321,0.5941678635422716,0.605118923410763,0.6329510161437866,0.7311461934159005,0.8135433401845327,0.7465379922313358,0.624278177444817,0.511471869610796,0.3905633504416275,0.2697519605069161,0.15862384639469385,0.07933627542322252,0.1221456728443302,0.22854787657823383,0.332293473459937,0.43195647358052236,0.48183333591836064,0.49824185038231983,0.5301204650260689,0.5894285584488168,0.6570522386582347,0.7254209757572769,0.7201160861282676,0.652880890514941,0.5969510771742708,0.5776357414253654,0.5678793114629168,0.5793940826040083,0.5639312568455312,0.5292000402043575,0.5077635889834538,0.5454906921307616,0.60629198189927,0.627546001809705,0.6799094176363161,0.7172544418388345,0.6251616547758969,0.5081197554740253,0.38413712634240005,0.2672251774203991,0.1520918375477911,0.045759647626391065,0.020191037385683064,0.11000504643866682,0.22010540443283677,0.3322619583388269,0.4381290393220105,0.4975313899533287,0.5152910855159685,0.5376862569630814,0.5968002637589382,0.6662153860321021,0.7375250679791097,0.764188892844317,0.7021660006676673,0.6427341962942568,0.605836822981138,0.5917589592207197,0.5940891370202559,0.5735506146857086,0.5440591135626289,0.520757737271575,HB
0.40955092441660146,0.42055349582266965,0.43041706650521894,0.43781448420366187,0.43560110364848914,0.40439733847135895,0.35634173169180894,0.30789523811506414,0.3170601029034036,0.356275083804117,0.38999260485155485,0.4182227956029644,0.45585877297062993,0.5084287843611947,0.5736505888010196,0.6416291778210904,0.7111033995306789,0.7800098620337134,0.8486470337964228,0.9174106048418474,0.9748208400485775,0.9641467764566066,0.9012819483742006,0.8306273657839575,0.7601652326544169,0.6914189709057844,0.6194089004448599,0.5488346802216578,0.480163634217443,0.40879365584373917,0.3405332373836044,0.26993967893258386,0.23095257917650747,0.2790183400365276,0.34836348785529125,0.3985282399837218,0.41008736675544444,0.4032436979041253,0.40318272735111804,0.43545587104753336,0.45294335408299213,0.43555338596996296,0.42765091437870306,0.4102768442518687,0.36808017303867424,0.3168947816777925,0.27335871643512777,0.2880269104397779,0.3288194967193975,0.3566718534772043,0.38708381417862003,0.4320966400011258,0.48703261723100766,0.548598378280199,0.6169389493695131,0.6864305513999939,0.7563275930745627,0.8248726226456219,0.8923867057915452,0.9545994937906098,0.9614934040720221,0.90141694403643,0.8326441806622559,0.7628965871810239,0.6919065063493312,0.6235356139431899,0.5517262736823924,0.48034709107382334,0.41209007742567394,0.34053922993709973,0.2705627198482151,0.20152083449706748,0.14554663577504157,0.1752606255941549,0.24287333513356635,0.3093281448786077,0.3718922723217106,0.4081048655961239,0.42170990722860446,0.4135281633633807,0.42644723002121265,0.4507802087050905,0.46760214758238006,0.47093611781799005,0.45375096737097,0.4118315242306604,0.3621368187091015,0.34623239208549594,0.38452266377072186,0.42276248564344776,0.4483171590046563,0.48063895843273585,0.5369939418220447,0.6020401535423604,0.6690894194366311,0.7331613725289509,0.803683449253268,0.8723393232914006,0.9400466205540344,0.9999473883759101,1.0,0.9391452079148227,0.868550698404576,0.79950390507526,0.7294085393591242,0.6572366782058953,0.5874204816253897,0.518102775556417,0.44594207032040967,0.3736640896997738,0.30139752822225585,0.23066309618393566,0.18318105075735058,0.22085237869462726,0.28780417801923797,0.35404699096804526,0.4064515956125374,0.41995739591464,0.4044392513770091,0.399102518812968,0.41648965437469987,0.4377182813944911,0.4500310869456563,0.4451233444588629,0.42459907035049294,0.42564030679798115,0.4222575504139977,0.40408881681687503,0.3837486466085219,0.370330255299525,0.3863464412130433,0.39224705944771376,0.3490688567490081,0.2832182260191193,0.2148095645915582,0.147060713176125,0.07989756345288479,0.016145475763640116,0.0,0.05806509002355775,0.1292571752911026,0.197514770887238,0.2688589068261438,0.33954756017982046,0.40813419250036065,0.4797980135829726,0.548171375017782,0.6130534077800648,0.6776720527193768,0.73931576162888,0.8079673925811829,0.8790047647407208,0.9090016404826181,0.8533018565376546,0.784687734782849,0.7140712922732403,0.6458565222730356,0.5781744060022428,0.5127103662275326,0.4577837216397005,0.4264450300278141,0.40165124201186664,0.3629651381803011,0.32262563004408695,0.3162201202966265,0.35995334706336546,0.4111440793490999,0.44423201374128685,0.44652427802204386,0.43229388579258343,0.4068837522142217,0.38719944670985973,0.39449812177589205,0.38665702602026364,0.3578434978253905,0.296044641954078,0.22559289521594716,0.15503863935235207,0.08843431710158256,0.025231031589557085,0.00894148990841559,0.06629672793803076,0.13505354097560196,0.20632390877326912,0.27456438543255113,0.34571673407377224,0.4092008761648195,0.469139536182289,0.525937151556149,0.5843381540970815,0.6518307980229968,0.7237405280815513,0.7959736919026129,0.8583082084888264,0.841433884406669,0.7739423441974268,0.705100152476931,0.6352031376027091,0.5669943478185323,0.5006445895515893,0.43878914654914614,0.3874025629570106,0.3515176767965662,0.3254052213767168,0.2896575470478405,0.248012083661576,0.24816125017598045,0.2949128531217614,0.3472219832001432,0.39071909330349,0.40576000457940875,0.4191737069430622,0.42433351306523637,0.39528435594201494,0.3713649915466304,0.386172187474623,0.387409937054098,0.3547834901409399,0.29582655591244567,0.23408361322801163,0.16747626126182125,0.09898020098498872,0.040571393291804925,0.05990815287430529,0.1278054112537632,0.1960296652033452,0.2674554601721396,0.336882775853827,0.40643417663192205,0.47301673835870883,0.5355793348499439,0.6065087126782837,0.6767806625017269,0.7456850044764088,0.8171906668499979,0.860149331847767,0.8128034535357193,0.7410603557453362,0.6721078247019666,0.6027352241227005,0.535687798815944,0.4723693344909171,0.42006245034135525,0.3896730143558761,0.360908105292167,0.325381422051938,0.2830949874145088,0.2728345705828945,0.3173180615765794,0.3687635980322096,0.40916158691436244,0.4153040788781397,0.40681826947075184,0.3966518101781624,0.3821813923875157,HB
1.0,0.9490746109825453,0.8940053459345404,0.8389954620190389,0.7864294711604342,0.7340092303446838,0.6790140276903679,0.6239372253243146,0.5688604229582618,0.5138246194552288,0.46091213154526767,0.408820346768458,0.35386910471408906,0.29884661345203656,0.2461179843828165,0.19387205653799688,0.14443266508596764,0.15308259274705394,0.2058918010979509,0.257662882467089,0.30184467233320667,0.32537498132791276,0.32969040451549536,0.3416199186301072,0.32671900434126544,0.3165134842172299,0.32276110716281314,0.3210178226562307,0.29734104652249527,0.26220924041502736,0.2560511930617675,0.27407146097056523,0.27595790606459014,0.28513628128726065,0.2866824771186004,0.2651334622315341,0.21828373487360986,0.18729766428857775,0.20930688075588733,0.24671946416666646,0.2244555701179034,0.1871050003650463,0.18723386350275728,0.2250276455908039,0.2348824329507192,0.19635536400499576,0.1869110677382697,0.22159520099190777,0.23296450498864252,0.2253765354377406,0.252124468716741,0.28500323560749274,0.29506278865852387,0.29246825199846005,0.30105877294476235,0.31055449414622294,0.29910092387946463,0.29377346271964977,0.2600044102268101,0.21018406877682327,0.1584370929204788,0.10675636322631399,0.057908107890301985,0.02955250369310114,0.06142189853849822,0.1119454251046964,0.16515845516936456,0.21822681086814577,0.2701575292927787,0.32504574997975344,0.37810678389922614,0.4300665840830208,0.48499445430783383,0.5400712238411086,0.5951461472615324,0.6495900040830541,0.699662767374781,0.746291337845349,0.7995171667352464,0.8545843600152402,0.9092941358148187,0.9419619126116615,0.9051179687252281,0.8502899491781485,0.7952131557707535,0.7401363534047006,0.6850595510386476,0.6299837221484311,0.5753935854000573,0.5241242656574986,0.4706951106251661,0.41957151842928364,0.3681257094947029,0.31965496719365605,0.282608941114576,0.26193370210227085,0.260189350394169,0.255681197336993,0.23973060953518321,0.22495737943215388,0.22259628914514196,0.24982451777054127,0.2804434685891576,0.28636646856132886,0.2768250065682346,0.2828134361462338,0.28835486078908645,0.2867361937074271,0.2782126652959953,0.24536646971192244,0.1937615227781242,0.1425241601944921,0.09099630743596387,0.04059570713568306,0.0,0.016626457007642204,0.06821135100290121,0.11971932710641653,0.17315050605451465,0.22460730687580244,0.2792898709692808,0.3317667909509062,0.38427350945366734,0.4392777569827182,0.4943545593487718,0.549410685458093,0.6027921542051641,0.6544868672389775,0.7093460076025352,0.7644226799589974,0.8194994823250509,0.8745762846911035,0.929619276242928,0.979582962024422,0.9776201118397628,0.925977780955915,0.8709072774176644,0.8159399121514649,0.7637560682230632,0.7109448801822845,0.6559159591734914,0.6008869262000406,0.5480665964238453,0.49589534890491216,0.4419602042827847,0.39152976290393726,0.34174081415583335,0.29254542120698923,0.26341394086929615,0.2556362840252083,0.25222280772702554,0.2552790628753593,0.23948886809846326,0.22176252245535844,0.22190709454414181,0.24104095379141233,0.27223733487652313,0.2852423203728385,0.2752523514513613,0.28200499446106475,0.29944447639533256,0.2950892012522034,0.2896358029511005,0.2574104478447745,0.20683606024737888,0.15954988206792287,0.10965860997472154,0.06655274987224669,0.07080753384904048,0.11753583557173153,0.16852486047347703,0.22194023710571498,0.2732322145877937,0.3277738774238522,0.3802012205043689,0.43275758360523064,0.48776702356237045,0.542843825928424,0.5979206282944766,0.6529974306605287,0.7080742330265827,0.7631510353926351,0.8182278377586886,0.8733046401247412,0.928361314005682,0.9769925110346697,0.9647203491572275,0.9113271148294587,0.8579378574537816,0.806251499997861,0.7513933942663783,0.6963309928614717,0.6427234796722286,0.5911968466136693,0.5364095305515034,0.48248037294672697,0.4312795680149377,0.3798614155114416,0.3311556214559548,0.2892166509240577,0.2713118134803032,0.26460926357676906,0.26064758317604164,0.2475001115080574,0.23655180774925166,0.2151200352941468,0.21860534231167705,0.24948469128938688,0.27583479419578516,0.27815422058384676,0.2716891029495234,0.28400095780900625,0.29490041055877003,0.28603613361122804,0.2845723461479396,0.26887437488909305,0.22274366263857281,0.1716988206063742,0.12029760342774509,0.0694609359042736,0.027149861575931467,0.0399260358946133,0.08849517181615096,0.1398841643118618,0.19190139478327595,0.24683985105786355,0.3009627463646447,0.34629400050651493,0.3900884021903771,0.4398135762881933,0.4863895030724975,0.5308919476210311,0.5799811466084991,0.6343006846346676,0.6893748039113848,0.7444516062774386,0.7995173851634462,0.8532551030185515,0.9046902611103144,0.9559211072489869,0.9552088562130795,0.9034228651798047,0.84835122133891,0.7932744189728561,0.7381976166068026,0.6831208142407513,0.6280504979460054,0.5740478846164384,0.5227573179893276,0.4688502890493217,0.4177052857968949,0.3658144201875012,0.31725125397152965,0.27689338260784047,0.26013729699756327,HB
0.5804560213590317,0.537473239437579,0.4352839192264355,0.3191917157265691,0.2312014053782936,0.29926437080381163,0.4314497631609253,0.5662537327476098,0.7062282454336919,0.8345047711126199,0.9249138444282514,0.8696055183403382,0.7578644781921038,0.652640082993797,0.5986540566385394,0.5762188631834855,0.5247903615216303,0.4844514287496047,0.5201088735063637,0.5564216087544263,0.5709639047341097,0.5638586770980942,0.5449324486874465,0.5536049911423748,0.586786433315043,0.6296091713971181,0.6379557746350328,0.6083211781620697,0.5880825704809789,0.543000558597007,0.45706473874895615,0.3433479060363309,0.2791415708636835,0.3776638943085615,0.5124118139052407,0.6458287715571891,0.7888621450526072,0.9276183228808947,1.0,0.9306356492598993,0.810760844437707,0.696433541294438,0.6200167655614663,0.5991654087934468,0.5429098593804214,0.5097354763782596,0.5322073325527277,0.5504625045867484,0.5537362561419359,0.537668211369819,0.5325176446235895,0.5565745450043198,0.5914837290711552,0.5753617223138088,0.5573265843246302,0.5437747008483296,0.4790186840351103,0.37689543821255667,0.27157742349798,0.238009452593273,0.35102381171026487,0.4923427581017563,0.6223439868686795,0.7618064039842349,0.8905666003146502,0.9113513308997869,0.8145153711328135,0.6996559399389928,0.5876244756080671,0.5385856897597892,0.5244708298241836,0.4736253262730066,0.4419611323302073,0.4758484740712885,0.5138252339240998,0.5572845367735786,0.5735344850988264,0.545131416108569,0.5360799599048942,0.5554647712305996,0.567406588358319,0.5838072490503174,0.5852567594867644,0.5741305373462029,0.5157270860301275,0.42709738052471025,0.31535295538291663,0.2192655443479974,0.2667630621779331,0.4069619601948209,0.550283219382071,0.6900668596147419,0.8084722725423705,0.870717988480656,0.7962080650571184,0.6832693087157686,0.5771566451152839,0.5485342654448875,0.5490995356650545,0.5212199560833657,0.543469278165372,0.5667802769767767,0.5695495077784947,0.5594010042940925,0.5544819928206097,0.573822009963636,0.5700907615396917,0.6190941755861274,0.6605691331298988,0.6512359295925036,0.6320474284970081,0.5938821276007338,0.5281718628126821,0.4326315630744557,0.41984523148852837,0.5354842265794013,0.6748225561524932,0.8018782861284985,0.8743686724597572,0.8171672255901834,0.695082533139749,0.5907218989972391,0.5616910429984379,0.6509262774913505,0.7296746758865797,0.6528811252261235,0.5127071723841912,0.38223169134319557,0.24423026271475345,0.11778444435252577,0.037763113439733154,0.04384852492736924,0.13511708661305866,0.24773943300165469,0.3071202773967614,0.20036874854176112,0.07310695089035812,0.03595465313964308,0.0889435925941009,0.22279710230058702,0.34478996714738974,0.4202742682733578,0.5060872616264875,0.5531335057329296,0.5576240489108923,0.5809405065441084,0.5714534349004134,0.5217481963821111,0.4876923520676524,0.4786015054688266,0.4941610536689245,0.49692553529937644,0.490395368895975,0.4734618275445319,0.4422591436760781,0.46767111424190144,0.47432822265009733,0.48738728954395283,0.5700230971621578,0.6558092583240391,0.6018620078182675,0.46324220761957546,0.3267993886698748,0.1950996770327884,0.06662201836068737,0.0005245299412575122,0.08330862924160742,0.19769529107674355,0.3061002522710954,0.41634937530813154,0.4894850314998598,0.5043846172463091,0.5041913144942063,0.48921429101277436,0.46868986298633697,0.4548007839388206,0.45761530413147566,0.4805687293806127,0.4686144356340214,0.43895456552393997,0.4019161477455464,0.359448435328777,0.38501140568185566,0.4389667818244374,0.4693998591314328,0.5102931665410293,0.6080922626522534,0.7192207761662082,0.7199695107753512,0.5885574392687607,0.4588450358904077,0.31883502573321554,0.1840479955327856,0.05524892980051321,0.0003843480755509887,0.0858525179020515,0.20536023570059436,0.3142257584790449,0.4215386919087609,0.47751263644803466,0.4868046881517105,0.5032800912348923,0.4938090096789951,0.47114707761510566,0.4563051048704918,0.46469449654543915,0.4714948368623122,0.48039352824738435,0.46688153024661894,0.4309087503088609,0.44436918755423527,0.5012069061722269,0.5353503811309794,0.5451697306987198,0.6278534031633467,0.7378791898401822,0.7492195201371339,0.618232351293384,0.479239876975015,0.3489389410413133,0.20898938308990322,0.0819464795080167,0.016651475483057343,0.10022712624880192,0.21972038459969134,0.3302848264256326,0.44280648977967196,0.5111557822313482,0.5363390886044463,0.5577620132554189,0.5439782180478563,0.5012563584173018,0.48268438971498506,0.4816682214271366,0.49800085268604155,0.497731398008594,0.46003701015292187,0.42604755328737687,0.4390477828822412,0.49492591286840115,0.5186620092026106,0.5474078929476569,0.6357516210924934,0.7015225981037396,0.607375806019951,0.46498506047353105,0.32834592368619164,0.19621193022801364,0.05791222417998876,0.0,0.08333617337730859,0.19800124360571747,0.3103936154935565,0.4249096768467897,0.4976631639433293,HB
0.8184444893883529,0.7412108399724104,0.6378111755149023,0.5301471405533578,0.4322928747514254,0.3445939151131685,0.3196263564875166,0.3295518468121523,0.32185364185385046,0.30072588314719617,0.2559508915792268,0.26066281494458576,0.29946749749083,0.29038573457009553,0.2594162780920444,0.23490726031590792,0.2552167021983853,0.2757063346484636,0.2774669624409376,0.2736222113521043,0.30569438836997587,0.39297721933247054,0.4855937765490448,0.5804478597733285,0.6837135388278988,0.7829384568334614,0.8600023743330274,0.8200460394021576,0.7208508250520178,0.617136041072436,0.5178023312206164,0.4184071644724545,0.3139272708558736,0.23829700244412955,0.27179242493428224,0.2977662592072947,0.2983915011537728,0.2823438733119543,0.25762371380433513,0.27564341169048756,0.29754055634359844,0.26222683442567485,0.20840399569497836,0.19217001065793538,0.2148274356527442,0.21093905803378155,0.22546773231848038,0.24676210840328072,0.32274110572822456,0.4169209948867105,0.5204866045650762,0.620244171405929,0.7239089788458046,0.7922639505114004,0.7430567706279585,0.643186180261166,0.5483809477398078,0.4549735092306526,0.3542618151083614,0.2530747614627107,0.2093323064771513,0.2751438038217806,0.3380109376349012,0.4051448089932945,0.48339256265680364,0.5505053209139232,0.5863268238829713,0.5583676215633253,0.5375283823663599,0.542549328002452,0.5072420887593445,0.46097193208469545,0.4415954355688845,0.4590377882579362,0.4618237669922869,0.45361215393589926,0.47300948935611453,0.5512776666483248,0.6543367036133971,0.7543803897547758,0.8303076932841638,0.8041738422832978,0.7143330113792858,0.6100948338165195,0.5102615175026299,0.4248850514434115,0.4265336773427286,0.4318814447438397,0.41506835042019086,0.3849981793408275,0.33963149573861395,0.3570870600974805,0.3691235988043524,0.3380030474516347,0.29984144695159,0.2854581991111489,0.30986475078460285,0.3371688311757839,0.34678797053687127,0.36844038239149857,0.4424828207930469,0.5406543766690848,0.6439728238075628,0.7430498021325511,0.8421558506524676,0.9438068715635968,1.0,0.9383847253882229,0.8357639278236113,0.734027517037052,0.6315940214881008,0.533967735233758,0.4383730531230148,0.35702182149713546,0.3609691112247433,0.3675914843809287,0.3655707996194064,0.35333690734511203,0.31647289972109904,0.33184124701335915,0.36329492412180797,0.3558798018170748,0.31656379521472,0.3035058068164407,0.33235126831773787,0.3210722062567499,0.2461344990025458,0.15776082823325743,0.057753058475628505,0.002945558047866781,0.05993894862450122,0.13989109547833678,0.11378569769221447,0.025552649552649243,0.007722428980842411,0.08338342393409826,0.11984747561447984,0.040700167495953954,0.0,0.057275051075715844,0.15666954889690232,0.20136370286191285,0.181315137519384,0.15985614595111608,0.1962634608251097,0.21325320605483644,0.22669420831339648,0.21171237563922252,0.1569605051254983,0.16485531769678485,0.2565005272095717,0.35601737576585,0.45637489117462593,0.5510069889980875,0.650059314271636,0.6715227295431805,0.5838713479404638,0.47989952611211306,0.3801110966627528,0.28458384152224503,0.20725296672447024,0.16836694613438175,0.1695830148180697,0.15283419598201942,0.12364533215135332,0.14306049777396623,0.18379252644275335,0.21589817724780125,0.1916915890103419,0.20687389443910598,0.2520611154202945,0.27498670343440756,0.2748429676834152,0.22662545836006576,0.2142036861357437,0.29960388800415405,0.3896759085070567,0.4835943833547103,0.5872485606018785,0.6892384843028498,0.7481357733892202,0.6808656969317357,0.5758143052960425,0.475943200874668,0.389960656876148,0.3091518508902218,0.2809732478214517,0.28909690057575355,0.28987156967385097,0.27358677680401344,0.29735474532396267,0.3475352966715972,0.38274871582352965,0.38710814436594276,0.41361500100172366,0.4510779408671257,0.4111713269478834,0.3382169955454557,0.265115925132813,0.1923827614104543,0.1344893271094436,0.10519097138270794,0.16640474901250468,0.26657210129105424,0.3661140537378018,0.4637704524247077,0.47040045509707396,0.3791929738401425,0.2900870860310407,0.19084420895550291,0.10150269161599534,0.0535747066199439,0.04603074549521047,0.03818295716417808,0.04489664618883915,0.017095564996389534,0.041118367974616765,0.09977329068818852,0.1358968848717621,0.12675671129819954,0.10610021138558934,0.13912564089006207,0.14799370933214906,0.15427838859760246,0.14342033707633517,0.09795447108505395,0.13080309545666924,0.2275537069306659,0.3322441062549577,0.43340471793850277,0.5138706750194664,0.4826320456808517,0.39245741959127445,0.2933909721171122,0.2010614390397718,0.12763126660954538,0.1022451713729291,0.1012631971668887,0.09786843572494175,0.07343388240004023,0.08576063903547859,0.12531932163685533,0.1492796212626668,0.1144037591622169,0.10011198381471154,0.1353792667769278,0.16886217547784343,0.18281009415437177,0.1720818409472864,0.11970218775255126,0.15085396839101572,0.2505013625352046,0.3553902442575718,0.4475869040753202,0.53653130373328,HB
0.6482972431985305,0.6857243815831437,0.7023113410828397,0.7248465131918629,0.775979908733269,0.8638385979199743,0.8615650921045193,0.7660426780356582,0.6548601187384375,0.5319757090980044,0.44850399154302334,0.5186037414690545,0.6352044085344739,0.7521716492016437,0.8113327725896913,0.7532226052151307,0.6998297959779529,0.6216503273122964,0.607388314652388,0.6725359134835214,0.6753036652303499,0.6953022172808707,0.6679030825605217,0.6386715920168604,0.6275948135300975,0.6892077417748561,0.7155989560132281,0.7077627482612994,0.7761134705969122,0.8465484076256109,0.9262394090516337,0.9117850717164795,0.8035253007014429,0.6815679122439182,0.559382895700721,0.4649114021528702,0.5291342629137197,0.6487450017086365,0.7686884968386536,0.8813551374220348,0.9020540935242343,0.8159559857381944,0.760160768103227,0.6941464120945422,0.6523075899390014,0.6943317728353597,0.718779076110786,0.713640917214938,0.6873052213127997,0.6745398170912273,0.6217860655325116,0.6610447890673141,0.6941616671853585,0.7121368877603653,0.7381683039570568,0.7572392266794625,0.8503840262335212,0.9371266124772912,0.9091186358294587,0.7934351143158762,0.6707579580486032,0.5490837574688163,0.4306911880418034,0.42778884765588665,0.5302963608299118,0.6363503670864845,0.6812129423539814,0.7088832233186191,0.705774154448606,0.6269493759849902,0.6357887289282509,0.7018764229110501,0.7215912856685425,0.7334031597908592,0.7929628367830293,0.800445083908512,0.8240422224225163,0.847972919456784,0.7864231886185433,0.791381566127167,0.8412468065717884,0.8473282145116343,0.8578243231334892,0.9273028189918744,1.0,0.956595852086267,0.8481986138244642,0.7262123463839645,0.622926425424837,0.6618854621311088,0.7735508308076549,0.8394245914776963,0.8343627362009944,0.8071147270679742,0.7935040113552665,0.7148880090669931,0.640177314105228,0.6457959373528088,0.682511253085003,0.677602655306752,0.7024371732110908,0.7163450277107257,0.7874205590974797,0.8055244672131447,0.7097914626163431,0.6090441616490032,0.6439211820297333,0.7478736528219394,0.7491074150419028,0.6774548222931387,0.6584259585450003,0.5870195833490066,0.47680809015636405,0.38412601417142866,0.42310992443383877,0.5331195687212766,0.5875708395917785,0.6271108650573025,0.603169522992637,0.5252783754769232,0.4140887985405186,0.33825316374034187,0.23021742155312075,0.10546059740597391,0.0,0.01599710985255931,0.13045804508285785,0.2514537651844737,0.36777757248938436,0.480354980982022,0.6059814727098709,0.718699520264046,0.699937521560337,0.6563769107736774,0.6313953829913657,0.5943197755623331,0.5946665011843426,0.5598789436673322,0.547247528728364,0.6179252885139634,0.6984426646457917,0.7207973559386047,0.7344769708633738,0.6795994594172539,0.5880347871987848,0.46573617310237103,0.34334611129402304,0.228745579251608,0.21187366414306652,0.3166296501526109,0.43936472948358984,0.5646172476843403,0.6876164460648881,0.8100278865162285,0.898954219457222,0.8550313395775322,0.7955018072601809,0.7760109536141244,0.7344869207342912,0.7079230796393345,0.6268757573545825,0.6545994742768637,0.7533547654293362,0.7429085068182728,0.6521331291251415,0.6677731304629853,0.7272532219997947,0.6817949712090288,0.622286662593835,0.6423490686278968,0.6123311025703584,0.5139477036495548,0.4717168463292214,0.49453576085470274,0.580680183289269,0.6566196103669839,0.6363978639610928,0.5865750279453281,0.48169255025902347,0.3586663619861552,0.23699364187272232,0.11516628454257627,0.052881825129837745,0.13597559917357316,0.25787661561884967,0.3796647458752451,0.5060854440724829,0.6278445432253545,0.7487627369255723,0.8139809970129885,0.7351805153287265,0.6432414526570769,0.6270651303019503,0.6622874185850731,0.6364672208314122,0.6163125599331878,0.5410887070406711,0.5290405540027538,0.6004097810305866,0.6317009651532239,0.639099136993831,0.6363851067217601,0.6085431843098994,0.5658880976429983,0.5577994197240241,0.648530886666703,0.7069457198528311,0.7177944112887498,0.6183586674167929,0.49415707041806245,0.37210016754715824,0.24906419689105253,0.13274368283050775,0.11114034229169878,0.21525729842431351,0.34000601906173356,0.46257106032136464,0.5890165512981287,0.707611049594963,0.7654733325626413,0.7188421169968013,0.6409175998963963,0.5752813032960646,0.6172200161955379,0.6331986345025726,0.5612878313044884,0.559313279979921,0.5373280703579113,0.5735450332712959,0.6065372159062816,0.6133402786399698,0.5763473079232335,0.5154791205363709,0.5570415156715596,0.6293129691476766,0.6784605105231611,0.6739215934102867,0.562800580405109,0.4394146597327624,0.3193597596348743,0.19709620231427527,0.09633376211565703,0.12480598179174907,0.23994620056989002,0.36542382245321936,0.4874486350612477,0.6105618364687537,0.7273793653338569,0.7589789572025065,0.6934294337774789,0.6362017945994993,0.590327282700301,0.6136918032757337,0.6050125713604106,0.5597166442398764,HB
0.04699626824128367,0.1223338597090442,0.17928356116331612,0.22133800307006646,0.3085257820748375,0.4169755808888531,0.5290843326285974,0.6386341671259597,0.7411802822032105,0.8510720107309369,0.956410425492805,1.0,0.918563735598378,0.8071539869447582,0.691927667796578,0.5769962246453,0.4601587052473617,0.3457888991910878,0.23294147506800833,0.1837529992084992,0.2440363067213327,0.2448144007392774,0.20447418478314505,0.19905677441215142,0.22215201803268902,0.1726997177881322,0.09379597039033771,0.05030805648508507,0.11279651234982979,0.17138335768055768,0.20689515863555386,0.26905038285985183,0.3709292063041516,0.477008616547431,0.5819301301017874,0.6954302335277747,0.8053227647036332,0.917608168776245,0.9587151469581543,0.8713328318769631,0.755748543643922,0.6405181219727241,0.5228901472552974,0.40677813717592337,0.29074148875024064,0.18683217511367567,0.1872626538163651,0.23321951458585888,0.21092058314131434,0.19863050300220841,0.2194202746414604,0.18274188370466993,0.10268543554516096,0.05019995857199522,0.10582488612459406,0.18059708872746572,0.220128339048411,0.23745589134636336,0.32196707448030826,0.4287653120471513,0.5463466333669913,0.661499954582836,0.7749871499916108,0.8872889714665058,0.9802126230916999,0.9537194815181591,0.8439808296328197,0.724821390610981,0.6102503028299966,0.49337943229354053,0.37882806654642454,0.2656614646333446,0.19205563321494012,0.2287835402594307,0.24451607172000567,0.21925202839333036,0.23528444948301974,0.2279382375266592,0.15635840298677994,0.08606288880267132,0.12299376735144119,0.19785484838167222,0.25247597200826655,0.2739537752523056,0.34521028326880354,0.45153028177997645,0.5637551416093165,0.6687551282225739,0.7752150681384591,0.8872224472140884,0.9880735482109446,0.9902944339544963,0.8862652416488057,0.7710564896675285,0.6560022458281509,0.5389975541214884,0.42445436881588194,0.3089067480664589,0.20491471806585326,0.20313242567666734,0.2601367957036218,0.24176845233807698,0.21551985037304067,0.2349541751145643,0.20965166946813052,0.1398434410554219,0.06693860818602948,0.08727148681130292,0.16254510681310386,0.22148558784670502,0.25052307203616686,0.33717475028015254,0.44479637816268136,0.5557038239830754,0.6610856751017693,0.7663041627177909,0.8783958316309839,0.9801743010374189,0.9691090501144948,0.8627629471562148,0.7476231865509564,0.6357392928075165,0.5300120936446366,0.41638282729466103,0.30124617781087015,0.21158517576097347,0.22783909595363228,0.2177732834735493,0.1879543165125379,0.13762480314426195,0.0454734749558563,0.028865538419405867,0.10425953678016775,0.10407446084673744,0.02753514079651831,0.059264036722982194,0.14820450134305885,0.2206606689226147,0.3302858114836478,0.4445799469083085,0.5603661830471407,0.6755077867463879,0.7909135380244809,0.8591214885959633,0.7844804431199466,0.6713285280186141,0.5536102747687117,0.44010345165867304,0.3322155328380185,0.23575506083405617,0.17628408843917587,0.16834804661112623,0.1094999184744232,0.03175527400194089,0.012014216124056842,0.08077066255252952,0.16152135682872681,0.18942177352167655,0.15932179505546062,0.1881502101790551,0.22223149174959222,0.1801712069953192,0.13208355863766097,0.2061249675507546,0.31777663185709404,0.429553299605427,0.5336167379705019,0.6471795302213896,0.7650613850279577,0.8566413144036464,0.8043596487452651,0.6918150449735332,0.5778580662015991,0.46628831204662813,0.3575864088651739,0.2559338127410016,0.21892002144299272,0.19649506062164912,0.13041139193054052,0.05444589505979258,0.05238415107694494,0.133991121126805,0.1947297342233183,0.17738422888013528,0.1718663492629291,0.1957790228518137,0.17728865447580144,0.11862543040519014,0.1572131398120027,0.2579422804220435,0.3766213457550569,0.4911551584004581,0.6063419026749917,0.7210678021646211,0.8254871823052583,0.8184788294951866,0.7105655141399994,0.5965757887446068,0.48410545306974107,0.37444548973148506,0.2687775980580607,0.1912561771037573,0.16711297849159723,0.11204478341086888,0.03376644676647489,0.009295974238840543,0.07466045783220654,0.15261949339394798,0.17141094003439372,0.15736201107397285,0.18438299396648317,0.17550365597109874,0.09801512619648656,0.09373941000568364,0.19309347550179612,0.3091707724664001,0.42387738688255583,0.5404592047844707,0.6552828659681293,0.763044874877775,0.7526492488229322,0.6465485019009731,0.5276969564151803,0.41065748369818444,0.3030110913349324,0.21057653544730637,0.1596843954108822,0.11191046295774698,0.044628565384803975,0.0005342545689590583,0.05951435062652255,0.14214487830569023,0.17898831268115867,0.15394184581481896,0.17567137977963165,0.21141233143221738,0.17358704310495932,0.10559199333734592,0.14704055147357065,0.25620219517890086,0.37139836251621583,0.48668146041061866,0.6011405456180803,0.7201540332221776,0.8248877653432725,0.8006539389885046,0.6915469960373122,0.5780466123885653,0.464827194908894,0.35423211029235446,0.25065451732294997,0.17581282967591205,0.13518891376117903,0.07671961604628996,0.0,HB
0.7198902329709775,0.7784960146586646,0.7954412247481666,0.7998199402916573,0.796764735606156,0.7878423472505878,0.7483198562273046,0.6504538747255548,0.5271219425558353,0.4302391150574869,0.47754228285912337,0.6091589648861278,0.7431529814916011,0.8753430002902043,0.9769490114770814,0.9351274238457155,0.8194462167919863,0.7503494199416489,0.6870513047315119,0.5861708631873235,0.5469223851235392,0.6028450044365368,0.6637646442163487,0.7051815042596772,0.6931519072975019,0.6811445336929189,0.6826177659961181,0.6771065142041346,0.6634288853368284,0.6820234026932521,0.7450852584773329,0.785172678363113,0.792601633022767,0.799480862141269,0.8095161409989609,0.7720595790089302,0.6932794477710935,0.5838792099156347,0.4679002039201108,0.39558961569026563,0.49408928262266594,0.6403461345315828,0.7868478149576705,0.9191835249276048,1.0,0.9472328088917541,0.8272015655656717,0.7510867801063812,0.6802903733498371,0.5968212574269067,0.5601925575497071,0.6166086981222616,0.6784243425172578,0.7175743805327084,0.7080984731017197,0.7309937189223024,0.7136662201434385,0.7182679891609927,0.6914938678021252,0.7107680535376106,0.7573222178781971,0.832730102472492,0.8447006278642806,0.8528103079395755,0.84463055707768,0.8571091395649133,0.8036255690540455,0.7590198818848357,0.6453349298955247,0.5497313044185645,0.431225477215476,0.3206466667946466,0.3808404184329621,0.5157443553548244,0.6532465288508558,0.7899512328310565,0.9138012598717018,0.9554910312888185,0.8629989729602268,0.778106246654044,0.7195337462782811,0.6297267742251709,0.5631117949463098,0.596123482989861,0.6682003530926779,0.7354254374232929,0.7872284886332177,0.8054947419964011,0.8021929816224476,0.74472039200763,0.673516277821907,0.6143997301834156,0.6134265945235531,0.6596297035735952,0.7327270893079096,0.7908373951171628,0.8278340220539193,0.8535461152990527,0.8422411355232411,0.8181084827833613,0.7435379511832374,0.6373049249186815,0.5147975181072848,0.3886308234980347,0.37566336356322605,0.5095835742849073,0.64511690521255,0.7842932338437003,0.9240604206240683,0.9880610065693558,0.9197094792806464,0.8181375764577816,0.7375993153154297,0.6684502809277291,0.5817495148073268,0.5183207802184056,0.550389120680082,0.6173017071392706,0.672592572554243,0.709089802229566,0.7175171037967525,0.6882232062339653,0.6976688788985981,0.6881585900020446,0.7037391722790391,0.7483928482587467,0.8048089949509785,0.769699140575987,0.6929170933503737,0.628145684920824,0.595000894633237,0.6091784292454352,0.6139177236680458,0.6118285045183258,0.6217387184622334,0.6073284002350685,0.5458221796806457,0.4787833799705927,0.4360419333454657,0.47598290328377546,0.5587025142478987,0.6433167400421507,0.7103268349649872,0.7443048329707289,0.6352117014335299,0.4989556502091066,0.36111795826067317,0.2245965323446799,0.09210669663379267,0.03772565088383395,0.1273152582292303,0.25320011411750976,0.3854717170278592,0.516112273423349,0.6362241104280297,0.7295788670861212,0.764711605878607,0.7685059762334894,0.7406289790128215,0.6977366848028743,0.6279025611939253,0.5577894059526805,0.5163122914147427,0.5292160628256273,0.5870568317815343,0.6594118824607702,0.7151194061292192,0.7208864785099278,0.6867441947622623,0.6150196401786707,0.537620058831541,0.4560093756160608,0.4642774584913454,0.5408594432606151,0.6345517042381066,0.7039109466715554,0.7271302831650273,0.6397911060475856,0.500341129910228,0.3668249064812761,0.22600281048853832,0.09577497834948012,0.0,0.03834938835071844,0.16226057099836932,0.2943613864931267,0.437379709578666,0.5619960582551466,0.6723317712963128,0.7377261235159427,0.7620963909426153,0.7826224752348212,0.7644375332964417,0.7041726317147292,0.6384265462978682,0.6091883915807399,0.6079401437553877,0.6385479127789084,0.6397265364954614,0.6325236918791726,0.6437459800499576,0.5841030149192807,0.526452414127744,0.47647172905004354,0.511943305147911,0.591033537409476,0.6675004583458031,0.7265248257116541,0.7147049084651642,0.5861653008671,0.4516518950886348,0.31437668675026753,0.1879546181851146,0.0829439579182516,0.12669621688590693,0.24643045345141967,0.3791990221004773,0.5017071316352202,0.6131789763011515,0.6982028482369351,0.7121273593600774,0.715930251392213,0.7232310709912944,0.6942097852667777,0.6350882895380026,0.5755967001901174,0.5719816453634423,0.6050350778487252,0.6028894491816876,0.6106359122166012,0.6138921312806476,0.603399959524149,0.5638830664343701,0.4995185056116265,0.4615457302136212,0.49394521186382345,0.5842010073682968,0.6704691412071444,0.726297478392381,0.72011680510909,0.5912194378320468,0.45735027990859356,0.32161132090749556,0.19160758626011587,0.11140844752167389,0.1815852080394138,0.31180442975360734,0.4451631862738483,0.5651258205832406,0.6678783027237722,0.7119393751409748,0.7209692158723153,0.719707948518348,0.6938334849994101,0.6298715078063655,HB
0.11524729918597854,0.14304515721907185,0.18877600432881536,0.22372082632520307,0.23570880847137765,0.26190525470697446,0.32703878981451173,0.39579549745255216,0.466410077400897,0.5460020592388901,0.6258821069556981,0.7061640234359443,0.785909181971949,0.8657742092431657,0.9428179388131039,0.9617403313509778,0.8911554658018186,0.8112400098094907,0.7268503204871057,0.6450645455052981,0.5630572280242467,0.48027170256887786,0.39932239166550687,0.317327084360882,0.24435204225638807,0.22838810767927442,0.22507755517216688,0.19992348587272324,0.17216690765365872,0.18340726846364608,0.20199036761404487,0.2217886361589192,0.214482161167439,0.1768734320082821,0.12892998013242352,0.12945514585702167,0.17128865862475706,0.2140375201294451,0.24014874273324982,0.2545718149933065,0.29536197903048667,0.3635097304328547,0.4403686956551023,0.519466846110878,0.5986069570117638,0.6772696225749617,0.7567337810105796,0.8375062853791935,0.90733845130607,0.8892397307710935,0.8125379599698408,0.72927773766601,0.6548302630804035,0.5789367057527222,0.4964905006125526,0.41550506544621846,0.3302016886092318,0.248502455961219,0.1774343384484851,0.18993155022254227,0.23463101753124804,0.23681315818115656,0.22701288341226977,0.21638091289558048,0.2254044483127451,0.23617668575351392,0.2461770602509863,0.2270829159838652,0.1824102137943613,0.15569711793285013,0.18384702178455226,0.22343496324972745,0.2492672918711234,0.26536738513018077,0.2994059402943301,0.3558380967422723,0.42784524002332724,0.506046451673307,0.5842626083546536,0.6628786491853083,0.7424679616958461,0.8234986299589848,0.8764436799534308,0.8294972812289485,0.7502633953793783,0.6661001749043554,0.5852412242141634,0.5021572834391437,0.41696036349324817,0.3365098064260936,0.2529051547882628,0.17052638555132127,0.12401029437760824,0.17469032986956834,0.22428678593473683,0.2403376668768391,0.22919398720614503,0.22125866006132178,0.22458950054221893,0.23833656304227535,0.23994458043490874,0.21374047764109583,0.16266990268202752,0.12410160590975639,0.14705553748577493,0.19065869955734582,0.22915174067681265,0.24078056728581987,0.25920285195966497,0.31632962156340483,0.3920500572521233,0.4706372814619628,0.5508829847612204,0.6307558144371339,0.7108861287060013,0.7918066241359536,0.8720930891258596,0.9517265362724696,1.0000000000000002,0.9476087044454435,0.8677282127856967,0.7833872585171018,0.7033177751356818,0.6190364833928717,0.5377214211152015,0.4554777117752935,0.37479144153142463,0.29539220302233815,0.2412776118522899,0.245850693508608,0.23233367021377682,0.2167980971077499,0.20615878500526574,0.16286053945680679,0.08983264571531158,0.04134927506532038,0.06481808545526202,0.1190207167891344,0.11926981001483328,0.0551808117388477,0.05048784482596913,0.11536218975797574,0.17702736332799263,0.2324650879153296,0.31047118358233106,0.3900640796649133,0.47358562469987175,0.5536624744984655,0.6364477092165033,0.6679895522793584,0.5985066788363103,0.5187689035322811,0.4388140154781963,0.362333875849171,0.29764685754624876,0.24250400036274455,0.21649724155445482,0.20750243151015457,0.17654094991210378,0.13115972082517202,0.0926268231678109,0.09661086321554158,0.14616049449047597,0.19619543763398006,0.21187233818061668,0.20096894813956556,0.19574187761429407,0.1830170429793576,0.1995906722285432,0.21406293577358815,0.19239130793129777,0.12659085394508995,0.048182491657219106,0.0,0.04499723230512731,0.12123391388029159,0.20134102857898672,0.283720806700152,0.36488027458889283,0.45020398903451575,0.5317620030764123,0.6129327460301461,0.6504800117212428,0.5831188696580893,0.5029919465324983,0.42359523040694924,0.3494039513847442,0.28424549441442504,0.24598402153872367,0.23283294535707233,0.2078983849693572,0.16856713291823344,0.13349368013349605,0.13170136372317454,0.17449375903579378,0.21200725875543847,0.2168215009518475,0.20464152682820425,0.19260907826073703,0.18730940564915577,0.2074319509512752,0.20446565772532876,0.15003351400538523,0.07330850988945525,0.02375061446731208,0.07053195502740417,0.14883015375566688,0.22693356594887226,0.3089353575120566,0.3916401277366528,0.47274360871148624,0.5580922457778901,0.6313680697112025,0.6122474096827624,0.5312422773046257,0.45198165945406177,0.3749058230008824,0.30283055745681886,0.2497159787322596,0.22532762195543388,0.2101293485926543,0.17372124441462433,0.1294374276164607,0.0916068852673999,0.1003261654809049,0.15062256447758338,0.18978380000508244,0.18902852369844392,0.17099280933881578,0.15087743371602969,0.13369519252557516,0.1607194775818055,0.1915574952158583,0.19267000154377456,0.13228050719932227,0.09264569602193173,0.14483432380096528,0.22292013605438288,0.30177910295337473,0.38475385336095824,0.4648986613616113,0.548857313089947,0.629077668349737,0.6666861996318101,0.6019185227961523,0.522432077283989,0.4432998853918635,0.3656592837664583,0.2922494338755044,0.23439400627032803,0.21043853052674244,0.1996530019353846,0.1692777788593094,0.12535443768577648,0.09198795436708451,HB
0.43238915537933176,0.560577090807922,0.6896925587677174,0.8172935520874183,0.884680203819777,0.824775501261227,0.7459538795658673,0.6404223795377333,0.56452277190877,0.5270865233121858,0.5062635329422545,0.5249883310052912,0.5149242600558805,0.49019044045062987,0.45780334609081574,0.43327463020889745,0.4443025333224111,0.47130868453438435,0.48967543174840555,0.46511263013148385,0.4434262796069901,0.4654041612338933,0.4937079630206438,0.524118805477289,0.53388599688807,0.4440401621158143,0.3306692225590808,0.23250791654462377,0.27690328921970453,0.4067756258397237,0.5496174236240305,0.682393895636916,0.7887486517503888,0.8032040402152427,0.7133073951623095,0.6229140699862987,0.6317802805438131,0.6498731014441632,0.6657775879481482,0.6917171033537683,0.7074479850203659,0.6829224912979028,0.6377054246339222,0.6097525396488299,0.6299611675556216,0.6006953172932898,0.5335712161813877,0.4952593376440855,0.4954151427389806,0.5170008203317837,0.5515540788653035,0.6092406616081427,0.66147314456716,0.6060503956734666,0.5042253163109964,0.4112171173437247,0.46757393488892074,0.5978177008115502,0.7264080378194517,0.8598620488467752,0.9794795518475952,1.0,0.9092894720101437,0.8164420385713766,0.6997637438719355,0.6217576281132096,0.6002818478777847,0.5998453460468962,0.6274315525556355,0.6052519942351053,0.5777170027919487,0.528751298173217,0.47880059818093557,0.4891458752265976,0.5134704531547496,0.48858194419746237,0.4268258114013088,0.4099363187655003,0.4255674280612003,0.4493284491232883,0.4775263715931013,0.5462674419496651,0.543573175941261,0.44786154061894523,0.33548184405743564,0.26429688164445864,0.3523628949211859,0.48958819262162256,0.6185869985437527,0.7517406947415375,0.822308411839952,0.812970358715837,0.7184627003588351,0.6172156247755103,0.568067198637364,0.5513217733840765,0.5709071195264075,0.5794816788919936,0.5704715777359461,0.5228838953644273,0.47634368308717434,0.48445611372490527,0.5345494661796804,0.5303029986710937,0.4738836609747783,0.4486957455612881,0.488129853333815,0.5323046077600662,0.5492658382645454,0.6008679373748911,0.611694722660268,0.5195320251994837,0.41336519709346087,0.4232750164094341,0.5450923828027681,0.6837527542320352,0.8124033696025994,0.9382663229654145,0.9821994444984554,0.9069842414237024,0.8198375882596092,0.704262520392196,0.6074286874994668,0.5449479570055162,0.5446616808534195,0.6132140925387572,0.7260346808971385,0.8159795621436645,0.7531745533916783,0.6121903071458501,0.4723036128994762,0.3771657086590392,0.3229160361958141,0.1950254833747178,0.0603240832102383,0.0,0.024893566927858934,0.1382891079136881,0.2629391707799158,0.23516558554816447,0.13517126128721735,0.0319389050979737,0.006827612161373509,0.06526363252746004,0.19660550693844892,0.31896939492362586,0.4439892083866135,0.5115137228519617,0.48497994488885343,0.4585790110675325,0.41287868757638035,0.38377648572142764,0.4049276201340315,0.4506554324998815,0.43855988505983445,0.3994776859296367,0.416140780023345,0.46463329722026137,0.49363952981171044,0.49221789837385366,0.47619566762373555,0.4789988125803526,0.5023182067926828,0.5513023418845773,0.6417419851705151,0.6997081541449002,0.5971228230474774,0.4625291072340243,0.3308041981944059,0.20745171220304526,0.10677593619092729,0.08778818258546472,0.18835650717196817,0.313575061380567,0.42845580189581645,0.4317697557241069,0.39224494222885964,0.3669106223857872,0.3498556012882439,0.34847130542420235,0.3843225161347905,0.44126358107640007,0.43337058556242036,0.41024013887427024,0.43380299457218596,0.48904664222913885,0.5223882083384321,0.5328310249723076,0.5442563689839135,0.5346433601194907,0.5493864421643697,0.5737643262685013,0.6573173261302978,0.7719747718328147,0.7794486424360598,0.6560567599437443,0.5273142175638901,0.3976433902492009,0.27880112880676755,0.2047359514008229,0.262331845082326,0.37726798451059995,0.4912973546589239,0.5429919912756542,0.4986561808519543,0.4707403356238582,0.44812952471086787,0.4351738646113792,0.4525222661320618,0.5203391973692084,0.5583870895415708,0.5424001460614889,0.5628638658781848,0.6012494230633703,0.6340864310306062,0.6186830206077953,0.5864322109070081,0.5711458004397105,0.5581212928835195,0.5721293746059994,0.6638445352216773,0.6861523003080232,0.5746965064337966,0.4489189158719955,0.31610607334159013,0.19062654150340208,0.08239148997245849,0.07733336679642022,0.18115049297997032,0.29862331456949853,0.4044579595361619,0.42118295776253634,0.3771305262245046,0.36941537841285443,0.3656516729832111,0.3545338144801051,0.39961480700537244,0.4040051092879309,0.37563288158890584,0.36627359038448537,0.3893118626371441,0.42114365983394153,0.4368145527663554,0.43926816499589805,0.43859576069888195,0.45568631761163125,0.4904454863138885,0.5492948984491477,0.6359144834849446,0.715908644604434,0.6424485682659196,0.5141617372083362,0.3770340940659027,0.25006015743701404,0.14569269266957052,HB
0.7154103015495124,0.7155361352037715,0.6590578047437181,0.5802347773551886,0.5449032955165851,0.6168637967465571,0.7037865118832962,0.76739176711293,0.8187838282916453,0.8251799750611375,0.7599281712310177,0.6401133050264778,0.5035456173175241,0.4564923914618477,0.6007245106100356,0.7598016216266523,0.9246388487111417,1.0000000000000004,0.9080035995772646,0.8338395956329507,0.862304256314617,0.8273952306769945,0.7275670765996609,0.7366715232677419,0.7894155186215674,0.797456358736198,0.7594234621166218,0.7251291764564463,0.6761312875306333,0.5614304067300617,0.46251762199836044,0.47008386411150394,0.564925491497112,0.6581366846416912,0.7210333891688427,0.758271601854632,0.7767078852004894,0.7448884781927902,0.6302882414673237,0.537417970620035,0.633671580994632,0.8041785250441955,0.9274725843740419,0.9500295506513958,0.8548174855008281,0.8138833876050042,0.840651192269775,0.7820224389556425,0.7373295106439808,0.7851396118049094,0.8079283316507344,0.8106415819428894,0.7851705671507347,0.7874268197354692,0.7060494791466447,0.6101146601985272,0.5287082250138702,0.5640686591303878,0.6528806363536988,0.7441709919591779,0.8091521227535154,0.8310746648065126,0.8083445669469822,0.7309847650367893,0.607110145410231,0.5460502870352726,0.6836239312047678,0.8408956094043663,0.9808065522400757,0.971993490711609,0.8494840495683262,0.7794854673578091,0.8102952335316407,0.7636855055679264,0.7036131010661317,0.731796622514929,0.7372070403360182,0.7584366447391493,0.7621030276611349,0.7096401654859377,0.6181430402373564,0.5749191356017778,0.6152621994367804,0.6950806895470749,0.7654143554596131,0.7895012753276975,0.7961084050176299,0.718395812479002,0.5815713625110579,0.41991845537652805,0.35312561373355367,0.4879121525088803,0.6463029159532181,0.8112832690059313,0.9406421904667899,0.9270612414064483,0.8498252353950844,0.8825135857082658,0.8456272167178995,0.7650015952454639,0.7591529515323221,0.7908995717018708,0.7581838776481233,0.7619375587745574,0.7425321601380541,0.6790803462123285,0.6042495153106762,0.5258795822922058,0.5060096027478651,0.6050636463386039,0.6831879612429481,0.7365701934581508,0.7537502167662633,0.7470754103093111,0.6785041315210205,0.5571145593525757,0.4886238765882207,0.6193446643012215,0.7833923796467297,0.9342762892624363,0.972375334426665,0.8565663861217394,0.7269733773591276,0.6711261872634497,0.6865385081994417,0.5868923658831942,0.46145660523022203,0.37351530124361254,0.20672220202093872,0.04943032016535254,0.0013448513273783824,0.06626392422664917,0.22816226558412644,0.35754847285870994,0.28499110051141274,0.18308110828433222,0.047663904416544334,0.0,0.05328560491184353,0.20983143877109356,0.3764998156590722,0.4908366215782043,0.6011128829825325,0.6402890340145322,0.6551277830213844,0.6223099985697398,0.54599720573054,0.44497714780714404,0.3650476346253506,0.36324725077481457,0.4603350860957227,0.5459645727910112,0.6207935811697203,0.645931311077478,0.6575560629483559,0.6292890039805612,0.6638758267888112,0.6457123665584947,0.7042346091492386,0.7647521587453743,0.748467463611536,0.7347304273558373,0.6192205179508479,0.4514513109461209,0.2922474289657764,0.1565225523736955,0.13730450893730062,0.25864014064717056,0.4103910915592279,0.55876916459875,0.6827816427868441,0.690264766039316,0.6802331538643913,0.6579935822758007,0.5672218992796405,0.49981057488964353,0.4813702026332076,0.536672574939657,0.6285776040999118,0.6894135141050772,0.6627962396996163,0.6646724512917097,0.6559417760897461,0.6145303479628099,0.6314536237691977,0.6824565041924866,0.6724975227362822,0.7094295205221646,0.611109482326099,0.45011259217636157,0.3282670586518015,0.307100772625315,0.43471114552547174,0.5779168817972433,0.6956019775960764,0.7473975626661704,0.7341828810970417,0.6575262780085063,0.5650431655851023,0.4696694997118551,0.42810831702275687,0.47910438800999744,0.5815016821678487,0.674395213922891,0.7103728086149173,0.7181511224386834,0.687063738235723,0.6302448770144364,0.6520193155261667,0.7156508030186246,0.7157614520089672,0.7108369177612368,0.6924985798833627,0.5501561129670622,0.3931768548783441,0.2943007232901249,0.36032083982640195,0.4826694818279922,0.5996619772077687,0.6589367067123955,0.6459918070868045,0.6162572486601849,0.5332481320105948,0.44096999474325527,0.3599878189977588,0.3677657060576225,0.4631330430078915,0.5710868363160233,0.6253049451721706,0.6776216508792552,0.7186154095325672,0.703589038693536,0.6388233347621051,0.6179532143217026,0.6964086100009736,0.7424797264261698,0.7459279213867913,0.7590258249541537,0.6469959077677072,0.4885847629352731,0.33407442441184143,0.2653799244008095,0.3547853937270369,0.4990788116222742,0.6381276534312001,0.7323236546581247,0.721272536045793,0.6740980324731889,0.6044295925545997,0.5191999047757605,0.43719242805652536,0.4533436296201585,0.54189803031002,0.6083720349318722,0.6303504431664302,HB
