0,1,2,3,4,5,6,7,8,9,10,11,12,13,14,15,16,17,18,19,20,21,22,23,24,25,26,27,28,29,30,31,32,33,34,35,36,37,38,39,40,41,42,43,44,45,46,47,48,49,50,51,52,53,54,55,56,57,58,59,60,61,62,63,64,65,66,67,68,69,70,71,72,73,74,75,76,77,78,79,80,81,82,83,84,85,86,87,88,89,90,91,92,93,94,95,96,97,98,99,100,101,102,103,104,105,106,107,108,109,110,111,112,113,114,115,116,117,118,119,120,121,122,123,124,125,126,127,128,129,130,131,132,133,134,135,136,137,138,139,140,141,142,143,144,145,146,147,148,149,150,151,152,153,154,155,156,157,158,159,160,161,162,163,164,165,166,167,168,169,170,171,172,173,174,175,176,177,178,179,180,181,182,183,184,185,186,187,188,189,190,191,192,193,194,195,196,197,198,199,200,201,202,203,204,205,206,207,208,209,210,211,212,213,214,215,216,217,218,219,220,221,222,223,224,225,226,227,228,229,230,231,232,233,234,235,236,237,238,239,240,241,242,243,244,245,246,247,248,249,250,251,252,253,254,Target
0.8605082607564531,0.8596619778819443,0.8479682050779318,0.853160315334839,0.8778465792516044,0.8776990477150464,0.8688264744710525,0.835105525460031,0.779587588985553,0.7129574061040604,0.6483772491171536,0.6255332554248567,0.6606022693128772,0.7144876202355404,0.7618829736830084,0.7920086758281779,0.8188242967273411,0.8231499548412309,0.8250154929164726,0.8212962121932801,0.7711956477699977,0.6775399148706436,0.6575909685947483,0.7580173482180887,0.8403517823100222,0.8813912907337884,0.8614997081971407,0.8267644292661456,0.7776788947948332,0.7405482766671199,0.772776253866621,0.8338243969406101,0.8802580790500376,0.8814297775331719,0.8839279402258025,0.9096466742671327,0.9055176307594275,0.8592103231445622,0.8319871320105867,0.810948472022448,0.8038122886513279,0.7910238611599789,0.7897028979013068,0.779246118638564,0.7879219812423055,0.7767212083540209,0.7398765192742571,0.6701405603125248,0.6011267373868487,0.5734115050067699,0.6190153090973136,0.6724394479627311,0.7275660421062136,0.766122714772262,0.7871831480790439,0.7903135396903487,0.7887709751810843,0.8163408853983407,0.7788277040891938,0.6827511791728686,0.5857617931592265,0.5956671049193858,0.6953006534651003,0.7996922346999757,0.9012818470726272,0.9758914108046506,1.0,0.9665318403782517,0.9048306229291123,0.8516651352434188,0.8349659694532856,0.8730630870385632,0.9132597002944531,0.9113812161218795,0.8612752112430369,0.8051496819358839,0.7751348744848192,0.7770066155992108,0.8207240823115418,0.8514311997441775,0.8692022131231862,0.8852087759090144,0.8754802022486543,0.8431460771371508,0.8253127626849612,0.7958213981015998,0.7352122332366795,0.6593617657097801,0.6213414708457341,0.6647024366435756,0.7222000439941669,0.7668363923327486,0.809298822701904,0.8288262986664607,0.8364080510662344,0.8435612224198357,0.8682238661350743,0.8454598050605355,0.7485632692496251,0.6461638793483195,0.5553841517206952,0.6045145662060323,0.719156845077439,0.820503391340416,0.8959308254213574,0.9248843249762206,0.9040965953567213,0.8462737654787023,0.7862263373060348,0.7581914764094684,0.7912968376440741,0.8485650611960991,0.8681357235864002,0.8686062823842406,0.8685973350475189,0.8652746770345829,0.8377608672975247,0.7955738014248293,0.7980040453219401,0.8021267248976947,0.8021429841449836,0.8003277068982064,0.7724413291081857,0.7246084282678282,0.6793039870179309,0.690322063386752,0.7350092738216318,0.7983611338308867,0.8444868336900506,0.8348430274196024,0.7527326496611528,0.6411188046535217,0.5288810373290618,0.4166394716024011,0.29670911701914404,0.1899916757767537,0.09290825043652973,0.09488178409219561,0.18985788038797402,0.3041929493382902,0.420986372578517,0.5292535171620498,0.6481235584226837,0.745184248079926,0.7699791975261525,0.773661525131836,0.7631755410084193,0.7443199275913535,0.703065685688526,0.6554947511562719,0.5963414292935165,0.5576506951332534,0.5601705536017709,0.627691973299406,0.6923776976783005,0.74822934340779,0.7607434764425154,0.7985037540009357,0.8184757267605898,0.8034208596906196,0.786937393892793,0.7545626141793838,0.7156063754788273,0.7049051422912083,0.7110856101133689,0.7399723447636748,0.8017651445886655,0.844990905554456,0.8190894678623737,0.7757793945559412,0.7575923156083006,0.7878833151123916,0.847235550612301,0.9097327039840652,0.9155027174306261,0.8431481669276422,0.7509233735687375,0.6476575134877147,0.5406327860259732,0.42027452293109935,0.29839059804877044,0.1765530661569148,0.062266108264895426,0.0,0.049531610361977396,0.16158658284787863,0.2686313102746092,0.3872989477915243,0.4958290553541733,0.6057391501114049,0.6896060062707843,0.7170994420567456,0.7138007957167338,0.7120325476195597,0.702579966043281,0.6610627402561269,0.6072501000053268,0.5526716225886337,0.5076848516448762,0.5065303145212403,0.5603835732298883,0.6356916719933015,0.6999955123801525,0.722517179385501,0.7172900300481713,0.7156413240904511,0.7226220512394383,0.7240430006717733,0.7316038410630195,0.7465576518112065,0.7702352588089849,0.8163336054597612,0.8445039327476622,0.8241584197739575,0.8142659716932186,0.8134423239966515,0.7683793140526274,0.7077138102493112,0.6602844257457354,0.6717048495715212,0.7188366155076973,0.7706601199078169,0.8047811216266445,0.7866371025758174,0.6986061092932587,0.589469107156356,0.47755607368791253,0.3589254486402518,0.25182268163137334,0.1401552910925039,0.1013003621724895,0.1831536959215998,0.2994477112837388,0.4065221373513661,0.5228644109475509,0.6264293064464388,0.7174091865970653,0.7498599675226618,0.7501866836397402,0.741869108714623,0.7145672485233878,0.6684813628102564,0.615749608512008,0.572980530916773,0.5524389740787936,0.5842675572511844,0.6458971873573227,0.7212118555834102,0.7765962711742067,0.8083766461344535,0.811124734003231,0.8018157208723253,0.7837260717167367,0.7866747217073402,0.800901339749156,No
0.47447299142754185,0.494922867688095,0.4884041381963722,0.430798298227677,0.40993802192072115,0.49494248598841883,0.606170573410818,0.7244764813839226,0.8413833791916243,0.9298378685096056,0.9102773889684288,0.7978984593600784,0.6921055691565208,0.6440910806054214,0.6492790191794668,0.6619641618074925,0.6616019262598765,0.6389539163616389,0.5665050349221707,0.46992018144650327,0.4198020699171492,0.43840591717262,0.5161403587636908,0.5793996127456236,0.5993021625653516,0.5936467143888717,0.5908607705389755,0.5949948853727163,0.5902911892642395,0.6003357961366182,0.6114932628607508,0.5997054768598473,0.5740095054394909,0.53354444101732,0.48336492606744663,0.45821547840470567,0.4793180489904172,0.5184919071500746,0.5368018630202118,0.5438203275407325,0.569719420714855,0.572371316376612,0.5169074746961049,0.4384999883592551,0.46868747384397436,0.5945476422857601,0.7168897981605848,0.8354401628094976,0.944427848827611,1.0,0.9411814854347376,0.8313132756620862,0.7225807142836951,0.6939778176739875,0.6997037628920704,0.71216159780302,0.7154710097068797,0.6963245655328438,0.6456446638749505,0.5710416804381397,0.4842103499536079,0.41910621568975204,0.4215484376269587,0.48964428696665063,0.5565576501833909,0.6123024149190628,0.6110428135817898,0.5842963531737184,0.6136407411607046,0.585259971671872,0.5712996544639144,0.5883706498953596,0.5930903141952069,0.589841436215929,0.5603237242528012,0.5155070798129593,0.46492283606451945,0.4177279229720119,0.4000464843272131,0.4373047170529234,0.4879501194757476,0.5172731958998811,0.5270120631926076,0.5424819565365242,0.536255602082683,0.4681261233795828,0.3857265406785646,0.3981700949095446,0.5203214610582934,0.6360002713393782,0.7626484667210227,0.8757867831212889,0.9738526044857889,0.9766244412910159,0.8800705625907366,0.7663350534872775,0.6784532262838261,0.665319571122347,0.6797084167226055,0.6734394328201718,0.6698680397396211,0.6208448115393397,0.5363000132604827,0.45432343772872663,0.4146882208962417,0.4345776931742602,0.5082719527469597,0.5820606027635953,0.6079087130495009,0.6006741570496548,0.6045986178851921,0.6200092587982362,0.6326659741961258,0.6413248060186447,0.6294239061394045,0.5955589726080985,0.5367442431067295,0.47578395829402087,0.44783405618906924,0.4706949845718307,0.5070675891219993,0.5081485037138944,0.4626322814833359,0.4192700039449253,0.36847396245064656,0.26981076753591404,0.13960274988329324,0.025306519128852845,0.0,0.0678809992331515,0.195644250147891,0.3193876111188567,0.38304731517578894,0.43466847237040795,0.49189493066439605,0.5420791704945982,0.5677398261175819,0.5681262127361242,0.5514846145203447,0.5347992681567453,0.5250343719068375,0.5237464821594497,0.5031874418963143,0.4283495539055169,0.3643093417265266,0.3184487029712768,0.31966153321895385,0.3696979466161938,0.4386178033051462,0.5128644299603193,0.5819028695859774,0.6111824928502916,0.6123105016757551,0.5991206689138551,0.5960974431993833,0.650676566811327,0.7354422740430793,0.671276440015149,0.5483447278246523,0.42988572794338165,0.30324636189960374,0.18793111600824552,0.09528230462621368,0.12879991897749798,0.23655974644800715,0.3410807459498164,0.4345473875238297,0.4775038355413419,0.4631137202595488,0.44774032599606306,0.4193806194480141,0.3614907870935018,0.3259814831751764,0.33399277986882137,0.3661946069382296,0.41592563975803243,0.4677178193748066,0.50528132338607,0.5064797319213237,0.4751499127363146,0.4888346426328556,0.4895488494144167,0.4745732520170325,0.4866380392878664,0.4993179533243981,0.5160139491509304,0.4780635279751646,0.4061683171449806,0.33699129218968826,0.31713924536528637,0.3563393840790767,0.4246568556828314,0.5036298575317084,0.5794854880652776,0.6190126793752206,0.6314071124761447,0.6176440026577672,0.6197632349338957,0.6367823535388881,0.7139422656779617,0.7320390050632968,0.6275568383663841,0.502530350285066,0.3820414084765873,0.2613340838497864,0.14751389509572732,0.09803685744022905,0.18131947245301383,0.29237738921850154,0.39251082340058874,0.48189656180209495,0.5149725505669709,0.48959388321825603,0.4730494255692146,0.4538215887233954,0.4231663493751201,0.388331564986502,0.39253675460576654,0.4229866439373571,0.48085152543464105,0.5237096886746029,0.5444262722968678,0.5416610726675262,0.524946619024572,0.5277593462318446,0.5197342071920077,0.5199545675244757,0.5300347402635515,0.5178657096415069,0.450084528575851,0.37719250328399356,0.335887297660177,0.34714895358794706,0.395311968238762,0.47985102747882413,0.5646587177685012,0.5917485605352266,0.5886997691290317,0.5807615823178471,0.578095097594272,0.5883202559760945,0.6752113110695084,0.7176081731023847,0.6120151893754531,0.5049875999120479,0.406550074846705,0.29041071126937856,0.1723216064473263,0.07942286053772296,0.10567448877499164,0.22232570009321817,0.33715805126986176,0.4050898138095165,0.4182686691243398,0.390249002566855,No
0.7830313278435783,0.7104831727996501,0.6082490654055439,0.4994530775082744,0.38390085132034457,0.29568421855836124,0.30031086434789955,0.38834789399906366,0.4983894932566084,0.6083633773294777,0.6891278975173494,0.7466043033116279,0.7960970555514351,0.8190313816838932,0.8160796408377324,0.7680150019850096,0.6740555705755078,0.5815008398799781,0.4410756197491086,0.29819913300578893,0.3088703410857523,0.47151511532737445,0.6378864298198916,0.8086253379074044,0.9548817272713288,0.9685427412556304,0.8922126116713214,0.8667957919497633,0.7915694343827928,0.7050232632169635,0.7311100620881748,0.809267250372792,0.863431575714003,0.877615229598999,0.8553230408239711,0.8246766148515094,0.7961130422362563,0.7978259071047384,0.8089388335417462,0.8024894057239651,0.7913409190177196,0.7751640202629568,0.7599199421411322,0.7548550368312377,0.7100465081949148,0.6264527599555141,0.5201138575817223,0.42115336905862044,0.3417913984090024,0.35418088672047077,0.4438907994732837,0.5459548431492927,0.6421915594097021,0.7188272882181899,0.772514864083762,0.8111485294440257,0.8076271806763584,0.7867238205123597,0.7261653887070958,0.6266082360194494,0.5236205268015883,0.37025025955351243,0.2978029034067342,0.42274898100702263,0.5998334701182859,0.7669078079961116,0.9128024786608728,0.9828278280519731,0.9234073682872026,0.8895243368700978,0.8241924083246186,0.7253542474257237,0.7140216317851227,0.788537585004212,0.8499366928951648,0.8625714682064682,0.8703999529513844,0.8580551571696775,0.8620275173757665,0.8401521617974392,0.8403504877051429,0.8354557997959695,0.8425988853754651,0.8356552167781244,0.820400866072454,0.8194220992281318,0.8141916780986787,0.7500505668158626,0.6456996729393643,0.5366480592806635,0.4250848576312043,0.3387401269569281,0.3538270435659534,0.4391505516789529,0.5405874730226268,0.624371818210407,0.6944243508463623,0.7655788171013311,0.7980719123683881,0.8179519796961019,0.7975751973546501,0.7325241540948983,0.6430927301738469,0.5280779667278166,0.37559384242263416,0.26502198706097513,0.3804335770235694,0.5413434021459107,0.7145695625646411,0.8727724193408664,1.0,0.9876049895189434,0.9580765584207187,0.9108631600200185,0.832831296984919,0.7359621880154545,0.7492674810722653,0.8298471941709806,0.8982400517301201,0.8880664926114736,0.8793128213999069,0.8786080623090857,0.8603224846907453,0.8490730105525319,0.8274649464755859,0.7502447546314288,0.735533502738388,0.7481143059935844,0.7662480689596718,0.7689467122099884,0.7914836217410315,0.7899304313250779,0.7908260352324321,0.7545978312055324,0.6759415289924346,0.5995445482550998,0.605439270566575,0.702356155900878,0.7996107167016246,0.849257312323962,0.8616942666293177,0.8016004096423099,0.6438327055698192,0.46723516900544126,0.2831086691433278,0.1116261737107127,0.019752541095920506,0.09146707853187852,0.2098254836901754,0.36012681974330096,0.5109161375106472,0.6172413203067215,0.6958378092944466,0.7146629139798755,0.6907655444490963,0.6406849782074149,0.5685607904209604,0.49510824510209606,0.39679433300702804,0.30183810359620544,0.2255183258365827,0.22328257875520308,0.2933660735582597,0.4056847089297628,0.5179763451307275,0.63557041930469,0.7085815838496847,0.7176961322655169,0.7177790797027201,0.7260495375662277,0.746487950440323,0.7476396615990417,0.7479422638614892,0.7576679753996451,0.7655476650798878,0.7672190083837274,0.7648232911161017,0.7374813854156894,0.6503035494806957,0.5771543398848777,0.5707165581248583,0.6620082735808479,0.7655769154334369,0.8154396733851073,0.8184165200034412,0.6863137274016102,0.5253200636478699,0.3453876943741774,0.16152192744136507,0.009723901379619093,0.013880459684637358,0.1293640758380743,0.2613853920924436,0.41098457185489945,0.5406263968395386,0.631676143317657,0.6917053533036874,0.7261363082147296,0.7090729046211859,0.6661926351402965,0.5912439633809798,0.503828499007561,0.39946838774835935,0.29814764584738196,0.2309115312608201,0.22476377063695008,0.30256147966930147,0.3975160447109021,0.5046950103882031,0.6087845712034792,0.6546892403266309,0.6693985713866697,0.6795959018733617,0.6877569351656172,0.6908415779740809,0.7123611270198573,0.6978563103213258,0.7120306288262892,0.7343229039798445,0.760100803608414,0.7744138045719406,0.7219606437012356,0.6333139287624538,0.566754793670551,0.5805274544902632,0.664598384763881,0.7449535017286735,0.8022916644022073,0.8015110192825636,0.6825954214467682,0.5486640699527001,0.3963394793827577,0.218722075452761,0.04669165828030675,0.0,0.1059578145268052,0.23693637245900234,0.3855410993440982,0.5196767547894181,0.617072916877409,0.7032014671858491,0.7160828672159996,0.687529464251015,0.6628614323799447,0.6016649062636121,0.5204804909444984,0.4180134343581452,0.3068904323975046,0.21695368497614265,0.183345350693898,0.23285012952372686,0.32751314886218896,0.44843750448449793,0.5599405596697311,0.6616063423622807,No
0.8638070678606671,0.8582888242555244,0.8450048402695616,0.8381216505575668,0.8396366247067022,0.8602582955916278,0.8594802632875449,0.8224010133378254,0.7771828445455864,0.7494975091198623,0.7765924123044912,0.8268466349313026,0.8683046774056444,0.8907093014101204,0.8823109803869429,0.8418984460884966,0.786528057895904,0.7349788114786093,0.6467778336532346,0.5480416990326853,0.4814834578011229,0.5262619701483235,0.6057212507324958,0.6945398455310265,0.7837069937171115,0.8578100831153257,0.8888908475898505,0.8794237686444546,0.8310588154183443,0.7691360951747257,0.7289546608003643,0.7678035587662804,0.8189146340944842,0.828711164315852,0.8211151903784557,0.8160888552900094,0.8156590310317997,0.8271960614442879,0.8542820863828793,0.8530448401107609,0.8255566422797804,0.7844406539386457,0.7662775694497503,0.7905460046411046,0.8418539534127374,0.8859261073970146,0.9096787667436355,0.901595327762948,0.8664137467785291,0.8087497497022536,0.7307613092072061,0.6410654036749277,0.5483678750230465,0.4568986949547609,0.4426576784098444,0.5330141247440299,0.6283146436971381,0.7204757794001357,0.811232335825413,0.892643009418576,0.9178951424024391,0.9100705976611791,0.862461753394969,0.7976930105487983,0.7641827076765979,0.801384303108936,0.847373180288191,0.86806341890344,0.8713530174586961,0.882329805582214,0.8673999747661665,0.8608094431319346,0.8595393930401218,0.8714940720657112,0.8651706742564131,0.8262269837594578,0.7823554936630848,0.7508373264360133,0.7775882602942323,0.8312721522815927,0.887785092416735,0.9302002940267762,0.9628491460321691,0.953161274345715,0.9058448980600546,0.8423241290932062,0.7611842427713282,0.6697166673911918,0.5741755494603509,0.5241992335857617,0.5890884548059212,0.6854792773877223,0.7783230287160678,0.8695827253809865,0.9535534034765141,0.9999999999999998,0.9992938389884853,0.9651792939031381,0.9084849237637489,0.8423495407780666,0.825631305716205,0.8635326469794584,0.8862136936060916,0.8669849504276337,0.8548078191371016,0.8416836708569553,0.8359209079089716,0.8384451245743951,0.8389378611519389,0.8278250287284854,0.7902377869497188,0.7380330502900645,0.6750807162489192,0.5822518427684218,0.49109492680226086,0.4660275359224455,0.5200042972994727,0.617768599468935,0.689343882380564,0.724224707538973,0.7692924728418198,0.7897233775905901,0.7938091260048445,0.787208823479576,0.7932472812208557,0.8084994122043183,0.8199217940492127,0.8373193548798772,0.8164559032062517,0.7701047534910737,0.7565955881922426,0.7920748370221793,0.856722599515378,0.9208677649379722,0.9530491006436785,0.947422285550622,0.8880977519538173,0.7989467632030334,0.6987643475881973,0.5978512443346362,0.5014019867851636,0.408432927281682,0.3089307039986193,0.21747231604410544,0.12335526078658665,0.07414957408996248,0.1313896193007691,0.22694339573461675,0.31888787667502005,0.4148336497347802,0.49438335523965193,0.5832426327109437,0.6799947884132533,0.7702615489564966,0.8452925408215644,0.9007217774294165,0.9123302452320321,0.8788297988187221,0.8284774317353658,0.770805447566042,0.7223524458292052,0.7008191243146451,0.7311222330758669,0.7737969115675194,0.8146970273417666,0.8242200187193849,0.8148894698726596,0.8156775726926051,0.8196425813280788,0.8307399921589147,0.8334582962374777,0.8175918154606328,0.7854446729636757,0.734473418699874,0.6936803835025713,0.7226723886142892,0.7824087952796519,0.8451615525854439,0.877684076265197,0.8560244113271362,0.7818425891825111,0.692366108173853,0.5953934817446844,0.5037063291527184,0.40363045037528855,0.30266487274786913,0.20207604769366316,0.10932751763137616,0.03125093927872169,0.04642487144991625,0.13231455441139972,0.23125880379922026,0.3225864729313508,0.4216727430771423,0.5172895827114061,0.6099904803943315,0.7003912628219562,0.781826146813662,0.8364615137816165,0.8548947300936895,0.8518875084200268,0.8209171496805288,0.7667614117729256,0.730316620401817,0.7293190891295864,0.7543981629553766,0.7955024054929625,0.813207438611786,0.7906085541127241,0.771890078392891,0.7682460198917564,0.773202191626863,0.7775775438263526,0.7847949795097746,0.7459514253561632,0.694633108561612,0.6776580323001669,0.725484457130184,0.7915000656871747,0.8401776920413997,0.8360841756905566,0.7819200412455831,0.6954280229763194,0.6046524747620954,0.5071820802517655,0.40948638794456294,0.31749080394713314,0.21738535161387906,0.1229018321530515,0.03246209019751389,0.0,0.0767820109242705,0.16822833921272995,0.26643421420659874,0.3667515608489147,0.45892065432233986,0.5559084379904362,0.6475738489972751,0.7282870276082642,0.7888259402270974,0.8378610796324335,0.8434764290937655,0.8102086450459909,0.764541641633665,0.7169028931666472,0.7040016129578925,0.7332541901747922,0.7756174446381674,0.8104137529222972,0.8086828023680164,0.7924932131987015,0.7931285171669356,0.8016306455423845,0.8118268669975743,0.8148154437455741,No
0.7220839608541145,0.6574137027412399,0.5808587737951143,0.5367857515818351,0.5700171885958976,0.6397011418100327,0.6657248508907374,0.6700967952523724,0.658249452214716,0.6304521309368769,0.6115368892601052,0.6122228928036808,0.6317449798572423,0.6491697244792847,0.6605027851999967,0.6606565233263528,0.6108003662872683,0.5434241871116292,0.4907436967557386,0.5224427867073218,0.5911547579478422,0.6693195031237775,0.733094470508814,0.7546931241256623,0.7645282281214416,0.7528395950449069,0.7313797180444643,0.742889541758808,0.860035883692432,0.9425660450226148,0.8865858674011053,0.7579692062999746,0.6348172109824555,0.5022064694831969,0.37904954580020656,0.40498092717105827,0.5250153319778357,0.6440889928977018,0.7539266488665066,0.794060900125602,0.7488179525637757,0.7431758355811788,0.7092974672767562,0.6389043897982067,0.5532585973565274,0.5437137597790791,0.602527452049642,0.6636805988057257,0.6672830230803966,0.6448051572246389,0.6303551465059449,0.6328758470541862,0.6525398735509103,0.6695748110743049,0.6686311973971195,0.6496336570820564,0.6151729725911692,0.552196832148212,0.4947435763547938,0.5168307552208544,0.5812956112302752,0.6494925607491435,0.7081985493733525,0.7464125166008002,0.7739469780251991,0.7891530967020763,0.7598739174229068,0.7531145965702044,0.8310563355974883,0.9475517028627811,1.0000000000000004,0.9166331379922212,0.7852111181588439,0.6629505635927933,0.5273202478140857,0.4117748111495989,0.45288517775889714,0.5792977180181533,0.6998993705944709,0.8087644607107323,0.8310118948073031,0.7809270125863415,0.7662447312317417,0.7198117786023732,0.6360093926635586,0.5730975960070568,0.5960257444276862,0.6521670686231209,0.6990959734787827,0.7010536442106572,0.6727121001711294,0.6618704905314492,0.6712850055350583,0.6804067078771903,0.6780597047906887,0.6714744080251189,0.6495178227945133,0.6036231414169633,0.5290508064257122,0.46569329090368683,0.4906425327346118,0.558475044380633,0.6267844857038645,0.6856840234320938,0.7217932950505275,0.7323191839626055,0.7294396949890118,0.7068881363538289,0.7144764105552692,0.8186485952179803,0.9133718590969409,0.870466917595818,0.7472214033872646,0.6217655417024281,0.4846475598160511,0.3704587897530889,0.4157520414921261,0.5375999603527988,0.651943677769109,0.748614242843594,0.7684728968022023,0.7304492957040614,0.7033472656910562,0.6416956914265137,0.6220076304330617,0.6549751851514918,0.6445471044760471,0.5521730042944171,0.47167301996381505,0.40549182373473647,0.27447849135025093,0.14478136100499484,0.09132848579591535,0.11781011732854951,0.23398672571612744,0.3688763283753995,0.41451309177924855,0.30790063013233526,0.18042562180373345,0.06261359371943831,0.0,0.0704134679015258,0.19175554243635506,0.32252783074795355,0.46001478425083064,0.5776269720731415,0.5946502687846151,0.6374981530803585,0.6757400639508062,0.670794875412875,0.6554675381167661,0.6144349277673697,0.546076642549528,0.4809039318736472,0.41123318951988397,0.3815238926283837,0.42393133282285866,0.5030899589979398,0.5789832471825131,0.6026107507526031,0.6162038684850786,0.6127425101787751,0.6112795812773069,0.5953205981688758,0.6019005606651855,0.6249578271204457,0.631264120606351,0.5773669193433482,0.522174866893923,0.48918094560059,0.5307444346951917,0.6163600060825662,0.684887966766687,0.7098572707959678,0.7070997925510274,0.6465523591878233,0.529706276537818,0.401564995139454,0.2791659093519514,0.14983958577769219,0.08449644242143295,0.15396051335577665,0.2752997462855147,0.40627340977785975,0.5436392298922206,0.6506156056470207,0.6552014043125891,0.6919787829370385,0.7055828988940536,0.7074360161885225,0.6825946735797168,0.6427854305331171,0.583946470066,0.5126656790020316,0.448477651418802,0.4234631039551089,0.46941265088998296,0.5351728014408903,0.5805043423445251,0.5926658519803105,0.6062204499453085,0.6052492303484391,0.5809263567337548,0.567325671504606,0.5796011855912404,0.5866507953570657,0.5998483980077642,0.5751345901310683,0.5058201459504188,0.46407639041962057,0.47901719533529663,0.5503296185817734,0.6298813187413188,0.6770238409292859,0.6749490969777825,0.6374215368524343,0.5282067774042942,0.39619671445572235,0.25905073241974597,0.13573905106166784,0.05015174937325062,0.08025628081495917,0.19460556100720927,0.3257413091807444,0.46316463694009347,0.5838741116285018,0.6336341194334265,0.6699429079041974,0.6901895033613816,0.6972911876664223,0.6929386872377901,0.6500129683022147,0.5782601550405957,0.5017905886654175,0.437937984407784,0.43028472595390976,0.48189490510609057,0.5486082069191145,0.6008102021406656,0.5912781330500225,0.5759378863929787,0.5685062859037173,0.5509719060343019,0.5490769815122758,0.5467921313645903,0.5637460402136725,0.5910128170801414,0.6122176595924955,0.5964345834947755,0.5354149708365674,0.47651812721658393,0.46326600200143897,0.504940823876673,0.5796398615334835,0.6520562885402024,No
0.8714355551871514,0.8279034652863663,0.7664584668641495,0.6941450267298636,0.6165324053487401,0.5359194222335489,0.4578502324050525,0.3789816415555075,0.37566569785610426,0.4512445883446675,0.5354183022054858,0.6189423078133319,0.696178801035836,0.7771110590280302,0.8540734539635225,0.9321433040653669,0.9606612448580568,0.9373276275419603,0.9268944470518007,0.8933947646204968,0.85408008984664,0.8580561284847722,0.8654592056241007,0.8534496165256501,0.8511170712341903,0.8763929375596923,0.9258880304539326,0.9680595786085052,0.9739767600507655,0.9655467587591967,0.9735239185917325,0.9855659448762252,0.97730950981378,0.9399817533318274,0.8854348963215671,0.8288887579076588,0.7994674476033189,0.8292551679094805,0.8751807281664742,0.9203619704097009,0.9563952154127263,0.9759712999318083,0.9702626180161192,0.9400975689591814,0.8894072971344639,0.8281625194808356,0.7504623021155469,0.6663816738287086,0.5838081670651519,0.5130928462538823,0.5185539170084513,0.5927296620687116,0.676556101606815,0.7580045350020744,0.8352920610504891,0.9122736571244411,0.9815956947360046,0.9968316673413219,0.9713782488173347,0.962441337245238,0.9329539013410758,0.8998530112189328,0.9156566582388835,0.9401677205064435,0.9486096784315002,0.9496691999624741,0.9540472267023955,0.9571532208794121,0.9512759282000604,0.9330213193616274,0.9252026924649223,0.9349253492142432,0.9494350021787182,0.9467650729950049,0.9049052384855513,0.8523241872300716,0.8097071793123592,0.8251518736690272,0.8632295284423327,0.903929720278751,0.9293014124674405,0.9412896142075687,0.9388971771555837,0.9121262405859166,0.8610620661802227,0.7923486771346003,0.7103577627959833,0.6333391480540248,0.5506797715351329,0.4713586640848174,0.391780329359979,0.31534012420903534,0.32821104035529924,0.409469573847112,0.49292195249744053,0.5700962873072267,0.6524079272083404,0.7364227772687068,0.8149970111970116,0.8935191732751054,0.9648456968026099,1.0,0.9717595186034854,0.9718254083315866,0.9614387062012651,0.9323426392941446,0.9446079764542011,0.9749278981261867,0.9870730316857984,0.9857533353536968,0.9724012932536331,0.9455022276406774,0.9323677727706338,0.9415554586669864,0.9293864116039493,0.9272549724543825,0.9332368038410969,0.9324651826288358,0.9083615285132697,0.8960304091396954,0.895729352866771,0.9100641463648761,0.9013027067840639,0.9029607673784293,0.9269665749183623,0.9522152436563812,0.9563236358325747,0.9439087958374116,0.910110138042438,0.8909551887134682,0.9158739228072096,0.9339494847687785,0.9394641187986786,0.9181872056422936,0.8474475690267097,0.7655560098748894,0.6884717766404517,0.6051504094392691,0.5210040911536434,0.44132346814477297,0.36208383490541707,0.27829078681702046,0.20014011714598312,0.1205088742821332,0.06387675342873089,0.091726835897603,0.1714873975488136,0.2557176755088483,0.33993980174435856,0.421294330175625,0.49906928593145705,0.5822793411625248,0.6596302614475428,0.7383167047206834,0.8111360733651222,0.8696219915271625,0.9071850223008794,0.9090922568737166,0.8925566458940676,0.8618159690302877,0.8194221301718282,0.7833937622018,0.7724106470044557,0.8087328411181524,0.8634756087925811,0.9118360735153049,0.9231444368646923,0.9068211921413548,0.9008283115115264,0.9035901242041872,0.9174411429623669,0.9257287496037031,0.9222335507713381,0.9175331422669809,0.9148861562801197,0.9054750143941538,0.8721010312931702,0.8629345916012329,0.8956900986991182,0.9300656456825013,0.9424111844744986,0.9298391779042471,0.8657847461273097,0.7854790043380174,0.7082068584432436,0.6261629253167985,0.5419349498565179,0.4595323840435984,0.38240103266556946,0.2989962455649272,0.21514761899904555,0.13747908695365596,0.07319867819940273,0.09862682583003679,0.17955510139618436,0.25757871926394504,0.33861727363534355,0.42267157933519084,0.5017534868146288,0.5815933514777297,0.6639504496884588,0.7407017014510818,0.8161719612814594,0.8776399950700536,0.9260833301130323,0.9457363636689292,0.9344919698509532,0.9003465353676793,0.8583545489068501,0.8108690826088626,0.7736334206761019,0.7631658503657764,0.8031860807540024,0.8607281987009955,0.9195818046978538,0.9514756881668417,0.949037215881216,0.9400136774783069,0.9353045879329368,0.9414465617154905,0.9068686619542726,0.8565022485321231,0.8253775035630445,0.81728406146492,0.8232482383007563,0.8346670048770296,0.8190636699195329,0.8286475988261971,0.8719243349619751,0.9001163738346264,0.9017719995712971,0.8784472860670635,0.8191436884230193,0.7445867485254783,0.661306203501869,0.5822920607236827,0.5023710270174301,0.4182094837599045,0.33396017654348176,0.24971086932705677,0.16547263553033764,0.08333723268914006,0.012001721745068195,0.0,0.06443455581968205,0.1464568734486852,0.226602587960394,0.3053911194329092,0.38941821212449124,0.47073743138004753,0.5485073384575722,0.6292658019894705,0.70573316441548,0.7763867217660377,0.8330307927912891,No
0.962713337188905,0.9499716610155773,0.899484101855603,0.8117138995238007,0.7102361459255786,0.5971406309325193,0.48631750986371736,0.4653744464328293,0.5663701518203081,0.6682178797250808,0.7582827462006867,0.8383982456010537,0.9223284294575065,0.9590263116840265,0.9432137737433137,0.9095184529973392,0.8852651398369276,0.9002382988744337,0.9076765746131341,0.9127058997631436,0.9122186070583356,0.9148601611090987,0.892922560353367,0.8492133998855336,0.7943182025300322,0.806135367963192,0.8494346433779183,0.8761273094350626,0.8898807108961393,0.8966697218917685,0.891770683257999,0.8531566809383528,0.7712522796951637,0.6752072263793842,0.5856633637084994,0.49644065055029896,0.4789582111417283,0.5732771834467101,0.6750578767944695,0.7733630828587292,0.8677087680335129,0.9171958132096962,0.9051851495527965,0.8706043205485796,0.8537975112965681,0.8765209871059418,0.8955201936387882,0.9105033516762118,0.9361005792025077,0.9500413685797271,0.9345214914447373,0.8925170694191829,0.838005853324147,0.832449796287033,0.8800874824176106,0.9137850297074628,0.9336987977434326,0.951992462330941,0.9648401784835203,0.9475185499272702,0.8671235690729289,0.7665855560729937,0.6568134441318059,0.5841556272005126,0.6479686493793861,0.7468958052456329,0.8494563459064437,0.9417681928339852,0.9855786668885969,0.9818335252954256,0.9512680383087815,0.926572727706483,0.9310798798630533,0.925569479080598,0.9325859426590986,0.959175989661192,0.9616618190234323,0.9347885391198962,0.8844283325033444,0.8314485037606312,0.8329280509486365,0.8748971412413045,0.914923288781581,0.9549368061804875,0.9975366706262878,1.0000000000000002,0.980772785673653,0.9214585580527828,0.8402189198040999,0.7435053434848433,0.637660462922929,0.5476555672353383,0.5813051358824868,0.683673618614425,0.7835523114223026,0.8818545004308442,0.9650696644962096,0.9799248318307778,0.956926236861509,0.9407446232235348,0.9393119695230292,0.957092531253491,0.9777846990674421,0.9812542603770924,0.9652825993043856,0.9473549622618431,0.9141853662274231,0.8667424336416014,0.8720444460929901,0.9482304959194503,0.9635114834167162,0.9096840316446093,0.8220560070522922,0.763346732078835,0.6987507973575584,0.5884462923904212,0.4996310051551871,0.496552804729377,0.5787386702714314,0.6899323983259686,0.76576457619897,0.8169904981506966,0.8700921300640718,0.9072413922564933,0.923573689713584,0.9355656319411325,0.9320645352743966,0.9109856171184083,0.8891737775001436,0.8901975085142684,0.9171292573788994,0.927869473479668,0.8697328959156805,0.7744718725389956,0.6715957492525806,0.5578870053243452,0.44649908074964073,0.34298333422439065,0.23112002619902827,0.13311900431655754,0.10236167815662367,0.18856321818559163,0.2919213789110364,0.402509344290908,0.5083187163105116,0.6159051438865311,0.7196702240726889,0.8199518363269338,0.9053043293252021,0.9521379463954747,0.9534322268535165,0.9180701198391101,0.8801562376092662,0.8408560523545059,0.797125402404965,0.7714023258572136,0.8037733898849033,0.8638820882815128,0.9019675959970768,0.9126699333905337,0.892469780059242,0.875122366886558,0.8798934345309808,0.8659414238014194,0.8865159696304892,0.9178752604898504,0.933600718103565,0.8825987835568403,0.7897219280047858,0.6927314095809558,0.5901412842347391,0.4766437085564086,0.3623160900831497,0.2510533559531747,0.1558717496281381,0.138509989674799,0.22740037849943606,0.33096050637935015,0.44344399298594417,0.5471494725361363,0.6578402543837563,0.763476050801229,0.8644007476152489,0.9173762883580199,0.9089469596909729,0.8936722732899958,0.8718824491249559,0.8363718730765186,0.788584694434858,0.7736781328750848,0.8120907990573702,0.8650851613775126,0.8989869868067559,0.9014079413564688,0.8778290578138608,0.8613320357497412,0.8436103275293172,0.8120781399957357,0.8018646588641551,0.8279017250189755,0.8671299574765221,0.8573412078810445,0.7711943183134704,0.66559358100109,0.5622120507645227,0.45872495274523106,0.34546840277901136,0.23739376490318898,0.13163974064327744,0.03046741901217076,0.0,0.07954700248502777,0.18481566787890102,0.291857729020911,0.4014376990244837,0.5060404743441842,0.6197824294094223,0.7281801342703946,0.8079380284559974,0.849661714378952,0.8393800469096833,0.8400145469745073,0.8228265240401773,0.7874449486768909,0.7385517058976758,0.7244636522019949,0.7753568118844612,0.8297392651221742,0.8624696785485046,0.8610072230158348,0.865593038120062,0.8601662504623391,0.8581732392760311,0.8396088970440736,0.8390906711022066,0.8724760589632032,0.9011494401997437,0.8755907751041414,0.7876178906094571,0.6912441005182586,0.5850558616843824,0.4817496050350767,0.3693555795957979,0.26494271986165807,0.15793638709836144,0.10096001461752646,0.16878980981087532,0.2749643930781529,0.37895963560338086,0.491420503818792,0.5949666811931291,0.7041188968447332,0.8041107585391154,0.8866160364951077,0.9155648473988205,No
0.9324085331433747,0.9020782152852178,0.8458423159710429,0.7696735048437626,0.689823694020034,0.6036718317995602,0.5807906922461128,0.6355159439387035,0.6998090562822536,0.7745620023750042,0.8609514120211885,0.9468187058451163,1.0,0.9838652903760887,0.9790627107814533,0.9510245219855731,0.9152577788229843,0.9348622420656107,0.9564086434186139,0.9022262429254349,0.8511251250419065,0.8620507611177546,0.8744827381857816,0.881270933194976,0.8887475370715856,0.8955192939026464,0.8906788178984166,0.8580508870324313,0.8016361381615869,0.7422856696247948,0.7412319148242779,0.7981288952451058,0.8563691546982961,0.8962193741273521,0.91845311898443,0.922996087600825,0.9022964705846444,0.8515596010454156,0.7813334652455539,0.7043198293390349,0.624207831995617,0.5405428483200745,0.4973126982568239,0.5718165688546826,0.6673053812521337,0.7561470990118133,0.8434560328625389,0.9086209327582293,0.9458669785750609,0.9072080458031455,0.8763094685980233,0.8381273506493272,0.7849965146744358,0.7795783956429492,0.8192932376644007,0.8183932285394511,0.806381093201324,0.7928729892620099,0.7813123736165892,0.7758724589371224,0.766390188297752,0.7504004308998278,0.7101387625103521,0.6510095923299135,0.5837258685976872,0.5443277438581666,0.5805522973479218,0.6377490037153644,0.6827074788470806,0.7164360908040042,0.7355201416299868,0.7313800182443913,0.6874768531418185,0.6125108808339825,0.5295407944008295,0.447681245861032,0.36916674332257693,0.35645114276054635,0.44143380692520684,0.529797279119085,0.6230627592298579,0.7104912743019913,0.7910204749001846,0.811933007945449,0.7835126563515562,0.7585027015800663,0.7096026199536765,0.6880749962952328,0.723807468004769,0.7524466558358269,0.7588804284373922,0.7572640079886523,0.7595379234362845,0.7590180848241499,0.7583990104087792,0.7608140439397684,0.7321965123216909,0.6735014451960402,0.6285300086733159,0.6520068887403454,0.7130801198103682,0.7707288191973718,0.8116007432189676,0.8349392616210503,0.8469118275131091,0.8206713493910753,0.7500472056416176,0.6862139742656876,0.6076219864371128,0.5440645544051004,0.5905435731473632,0.6787376707444637,0.7389152339478666,0.8216162108122922,0.9054828433694677,0.9668375426780813,0.9378498094644412,0.861418875052478,0.7751395997728583,0.693425564602373,0.6043694875005645,0.5181562605424972,0.4333965770392876,0.3436087391508975,0.2520949810340485,0.1637805698215169,0.13461062203322172,0.20240216395381716,0.29166139897984666,0.3822338654066486,0.4672668729636531,0.5191158169724035,0.5859219209800308,0.6752688037255716,0.7356647878741163,0.7942443161005039,0.7982234648251791,0.7811963580057988,0.7622760190560296,0.7140455822138148,0.6565970932062022,0.6020224329429458,0.5760871160047687,0.6135097412568611,0.673771024605105,0.710210350619151,0.7163050986582968,0.7156168097489568,0.7158527038337263,0.7144768502232413,0.7153480154777734,0.6964333425758691,0.6482765722742716,0.6246853067288662,0.6612030192101803,0.7130561757413134,0.7435070210096841,0.7446333154302769,0.6813830989865068,0.5938305601164768,0.5003115575357926,0.40708473821960145,0.3182668727846436,0.22297079206599713,0.1332750075677025,0.04338870762750635,0.0,0.062221732799096374,0.15271561014044965,0.24244839089392412,0.3332957410178643,0.42079802797521393,0.5060855861299767,0.5875129955510099,0.6563311730342607,0.6898742757004435,0.6753597747812761,0.6395324803923663,0.5918731321891477,0.5364761510742462,0.4989240228151406,0.5264070752098844,0.590672360138627,0.6524061531031988,0.7004494449468006,0.7190007017736821,0.7282056601094,0.734783582032293,0.7505746016688217,0.7634744430030798,0.7761004946969039,0.7607656152318503,0.7286204971764927,0.7532446562328843,0.8068176150577275,0.8397928501599807,0.860806799308993,0.820966475925206,0.7306569100300357,0.6425035925005764,0.5478027905577261,0.45242793579254226,0.36394546893918833,0.270201676132529,0.18020125649901053,0.1590285890876939,0.23524907773120507,0.3234755360459165,0.413798888109594,0.50229336724202,0.5883228323466159,0.6701323131933303,0.7476310046372494,0.8220576502841523,0.8677158427610425,0.8708068101300113,0.8509061119608847,0.8004467852033983,0.7400060601430376,0.6913352276508005,0.6931245218317923,0.7479087303638507,0.8135438184096733,0.8507424530206127,0.86166958662246,0.8536826235700066,0.8414308393866663,0.8359913289879406,0.8197170139475822,0.8043444925783085,0.8255307315720164,0.8880077547049616,0.8777022685990059,0.8779545148574985,0.9164263390508074,0.9378496609608769,0.9279952909843654,0.8609262492555139,0.7704192889119583,0.6803984776080172,0.5855721923890085,0.49730757404372383,0.4030310156629968,0.30979454065092216,0.22367978550030676,0.18570450422853235,0.25537087230821887,0.35073783795878644,0.4402797286664544,0.52987606953802,0.6157610462203138,0.6965564277327736,0.7738151081508196,0.843879064891893,0.8857795792993475,No
0.7151872010835851,0.7672966089191147,0.7967876750243348,0.8045246306388765,0.7928201014680396,0.7294132800870821,0.6548518941655268,0.5284183115914867,0.37848808703642645,0.23942348653804624,0.2702376359806933,0.43237400548832783,0.5884941233279135,0.760045418093545,0.8703079849879116,0.8399292487786547,0.7978537146049516,0.7841457556631686,0.7269544397727175,0.6229187635486162,0.5091804755284817,0.519284767635694,0.6142899691764971,0.7076410497328349,0.7700050396886744,0.7728970823879364,0.7519999710786487,0.7490894214628105,0.7417283087199871,0.7097573226314355,0.709803910706992,0.7292715402080021,0.7636276583725077,0.7904747778592074,0.8049359377159448,0.8196212589448453,0.7905472558626188,0.7405279693682467,0.6479865691634168,0.5282129677276424,0.41140240771271985,0.3102413148824801,0.3399583411461884,0.4504648707861336,0.5496063349396461,0.6479305166060363,0.7355917188716767,0.7922782824009391,0.8419287987549651,0.8739245719791291,0.8772365130589672,0.8826661887416658,0.846309818288201,0.7883304689508077,0.6727756587634093,0.5259221207496663,0.3848614936961767,0.397760309334783,0.5453948411446743,0.7135436015819008,0.8726956854425514,1.0000000000000004,0.9794206204726463,0.9208074906661303,0.9059843953657487,0.8356816203935682,0.7274982708217279,0.6234514656578276,0.63252254353042,0.7183737346460668,0.7988982255056034,0.8439694123784611,0.8328764714288357,0.8324087750396196,0.8324078540879589,0.8311611726089114,0.8223416949473106,0.8098696025740613,0.7930163511056771,0.778623835146051,0.7573590573334665,0.7019844542876217,0.6492006224350582,0.5528643864546958,0.43969608210646216,0.3220524246820706,0.2264901548281979,0.25994711269918147,0.37367875691480856,0.48779805991056824,0.5914591199773924,0.681697622559573,0.7632514427561072,0.8211976026658063,0.8810872132140024,0.894097893211788,0.8858334976409714,0.8558583744779971,0.7906333144137139,0.6858608985870531,0.5384075518729934,0.39955355036302675,0.4258867897836276,0.5908982611950857,0.7457343807202768,0.9013088961391893,0.9870021277664294,0.9712001597337907,0.9435029363433887,0.890690499178485,0.7934714575977293,0.6721349956319229,0.6053442456096083,0.6341693227556591,0.709750460304226,0.7676334870691419,0.776370429429234,0.7675283534516804,0.7756655123431,0.76974794660654,0.7454073804167973,0.7234746872606173,0.7216451355598621,0.7354253491314746,0.7394838053764814,0.6896944183052764,0.6457552965203743,0.6545341829290305,0.6495154809290518,0.6364513674283532,0.6541756890703421,0.6723523080564431,0.6823740326260288,0.6824839619803407,0.6857920987261772,0.6902968062714518,0.621118556458494,0.5492565359741044,0.4964735552156987,0.5382017612051722,0.6411803920091672,0.763339895235077,0.8438553358397507,0.8716912272099377,0.829928389962403,0.6779834114233956,0.5229347061655347,0.35072603029051175,0.1953133744231237,0.056150135726454664,0.05357300654411734,0.17894965797517637,0.34517720137533425,0.4978093376038468,0.6390752023440291,0.7318073017805147,0.7878887608373941,0.793250096335369,0.7730788818981442,0.7158331608818753,0.646867641988973,0.5576157360904053,0.45459284850877824,0.3418104855133186,0.23786386160603046,0.1391990101617817,0.11420922234785547,0.19301438783071978,0.3054056343183835,0.4294777644337313,0.5344562866893061,0.6089711925336716,0.6621193561504355,0.6839591054254295,0.7057332748490404,0.7263982609335113,0.7296659181779712,0.7530203304942158,0.7393580109772908,0.7482164787029091,0.7546210293480953,0.7566556523008665,0.7292698648444058,0.6454463215743265,0.560544855690297,0.5034794825077662,0.5244358326173786,0.6142818444951224,0.7133860985536207,0.8046031878039579,0.8285906813344854,0.8399903778487023,0.7310199540746463,0.5646011509108813,0.3994774574678961,0.2425384651171263,0.1019220385384938,0.07618601203772757,0.18763179124181084,0.33747021036748537,0.503153140490983,0.6431789193048458,0.7362974292411857,0.7861969608595083,0.7930936043461609,0.7723795742714468,0.7198697460356125,0.6626567407638402,0.5730852686956927,0.4764224348157273,0.3741528351411936,0.2718205241553995,0.1828138783393265,0.19765098671164383,0.2855072472611986,0.4013917708813044,0.5364291219570405,0.6379350080853876,0.7011452296315714,0.7312628570812945,0.7097444388145893,0.682562002461466,0.6462865812246856,0.6255509897291636,0.6188676259984827,0.6483171093349056,0.6658896825311689,0.6725446045455752,0.676566830433972,0.6741596730838073,0.6097071017626123,0.5137662731734225,0.4131347829382057,0.3883494073458196,0.4654924071331732,0.5771544291010087,0.6721168863519869,0.7082416142012105,0.7148003479715537,0.632767383257288,0.47001753917419675,0.31576859881495656,0.1493050182080844,0.010029297467930132,0.0,0.12406349615686318,0.27199167523421375,0.42531332257613874,0.5690420692948828,0.6613904635226944,0.7091916452778411,0.7231082266916604,0.7071559730199328,0.6656717030555366,0.6020555133087471,No
0.9684849809661991,0.9141174519474258,0.8849848818617301,0.8388178096573178,0.765913344580929,0.7647971981013133,0.8145949905521479,0.864398345198623,0.8764214151464849,0.870347466293155,0.8652861802695195,0.8412587398935334,0.7975046465653279,0.7435771844768868,0.7200830149941715,0.7072699587523625,0.7101750098193524,0.7117645633173413,0.6941061453789685,0.6575522990494989,0.6210049876148647,0.646686248306092,0.6982065962592245,0.7371995872711552,0.7765950708204814,0.7882420431094119,0.7964639800050026,0.7791037603359685,0.7209807108797004,0.633317417762556,0.5314971294452984,0.41663985835325734,0.3119942524884447,0.24377219193875055,0.31311046583633173,0.42489948967555646,0.5293147080492879,0.6389486080583993,0.74131777435622,0.8401269616411917,0.9161914340943991,0.8913877031047903,0.8404820148033445,0.8159976192392007,0.7601942362616456,0.7109753369870124,0.7449629811595466,0.8136923287274005,0.8632551132454789,0.8931865076592955,0.909537904617578,0.941568575519304,0.9406739451983475,0.9283019738830238,0.9099711061199871,0.8973478211765178,0.8786540536987686,0.8524548911282124,0.8165292261219315,0.7575452264089755,0.7208122513400892,0.7406029684193984,0.7920835927741581,0.8187445995809663,0.8399426117789011,0.8539393730797475,0.8617439820986332,0.8232587560440225,0.7533680548813999,0.6672641506589994,0.5674367679839443,0.4612216797794231,0.35611844361430345,0.2590404012959535,0.27396560829412575,0.38125255818119186,0.48660447710592125,0.597710672386409,0.7031770558066159,0.8138435657940155,0.8966985232478679,0.8862866601451191,0.8236938610633797,0.8094029260080422,0.7715928401355865,0.6954670272971368,0.6927483866106985,0.7425865321574769,0.7953290637065589,0.8112678731769183,0.8279827982899008,0.8498376373490899,0.8529676242370523,0.8536074376804392,0.8428507291676715,0.8399298388500345,0.8282135261461421,0.8301910311478551,0.8281224639982403,0.8201398203063395,0.7827851371429131,0.7329733013518616,0.7433727972326469,0.7916123054178223,0.839466609542336,0.8687817329407554,0.8807474818006744,0.9010671940849031,0.8847634660267913,0.8293500175652739,0.7424280764365432,0.64367082082572,0.5413269287932625,0.4348070405705302,0.4210489793350618,0.5157486514135514,0.6124203133477693,0.6837061379874827,0.7887433834651154,0.8924657760490984,0.9839367159259851,1.0,0.9471392395751175,0.916433260166801,0.8860253907242579,0.8757195743108173,0.7875486623961825,0.6869334406616279,0.6048110711696029,0.5010939034114523,0.38943491474891845,0.32429676828943466,0.23726436808558393,0.13804823081505946,0.11106094025003665,0.19210303997943923,0.2918270908047962,0.39452247575159927,0.5032417558512825,0.6082912804460867,0.7089208103381912,0.7973778726127447,0.8473528977912315,0.8400014316320426,0.8205693090187895,0.8173266596409925,0.7687284436063964,0.721342904389016,0.676478706862897,0.6752892772053247,0.7223139440108586,0.7616208924289776,0.771791518966038,0.7805713290687852,0.784586506837015,0.7944435290476646,0.788055543192816,0.8002499635636862,0.788825377962465,0.7779771196776677,0.7641508844605887,0.7352178902025939,0.6883824806185621,0.6370864357112711,0.6065961312680592,0.657841910660657,0.7329594018023946,0.7579329393428162,0.7725598298049872,0.7276353313271602,0.6240790508615817,0.5194333632085848,0.4086739774786703,0.30446737446411554,0.1904548054660098,0.07869630592815824,0.036058702459473846,0.10567874721420667,0.2052204600445653,0.3055563218243651,0.40562482110292297,0.49182161546508896,0.5900638938305929,0.6878807326304766,0.7684706444989837,0.8053537786303497,0.7909865802032372,0.7837294556928431,0.7657884324635154,0.7364816983991549,0.6820936443851151,0.6509781527969118,0.6693467242681512,0.7307502366908358,0.7722254135098097,0.793308493650867,0.8379077102210029,0.8481060489777841,0.8621777633081562,0.873599898224592,0.8633912167354625,0.8480329111573859,0.832308624988324,0.7973272259834774,0.7411655960230497,0.670926095397864,0.6268117986628847,0.6576376687512338,0.7281388022007218,0.7803407101770441,0.792553769360246,0.7957179967905197,0.7241034425108261,0.6336560645283109,0.5286495399111839,0.4221351394255919,0.31288157046671694,0.20764404691132565,0.09641117560743018,0.0015555176568589069,0.0,0.09802831118900723,0.20148257189208163,0.30511760891481643,0.4130867379351453,0.5164166967226715,0.6159219102873807,0.7002269620652624,0.7444053090136191,0.7413208550740116,0.7211865294113511,0.6916657326422855,0.6520409707009587,0.5992066585540066,0.555813355168469,0.5744554138624887,0.6200804319459379,0.6545789206630253,0.6623887025733888,0.6530543592531615,0.6678704140487133,0.6842016783373701,0.7209887372791943,0.7787566314103564,0.808943451472695,0.8266901491775753,0.8299357914698748,0.8075439781793108,0.7496583743048171,0.6991767602835779,0.6751056469071921,0.7233681891822972,0.803365214666361,0.8468325982330138,0.8670537015045556,No
0.7823992887293988,0.8283226793670032,0.8506917825939045,0.8532519935627872,0.8497918541378003,0.8474565804072417,0.840710785130473,0.8155392799071729,0.7722478225058623,0.7479068554800986,0.7766013399668433,0.8115908234550276,0.8463892976220831,0.875572288694492,0.9037064268098974,0.950996567951229,1.0,0.9730203227953168,0.8971724365251083,0.8155327862706584,0.7319112271706588,0.6495057729897505,0.5617056962644761,0.4736923782776611,0.38758395148833535,0.3615717658210923,0.4375663409222831,0.5252427798565434,0.6071968216293865,0.6916422434724369,0.778957358814354,0.8596243989654812,0.9357653773203732,0.9715787545080318,0.9292098287427505,0.8937970500055589,0.8571880641583095,0.8066205616537813,0.7814663627623192,0.8123894470001635,0.851323134000089,0.8610686338802068,0.8527665772157106,0.8449830358721414,0.842232245298345,0.8241093545287405,0.7850088204574962,0.7488181787015905,0.761567821868267,0.7963878680039137,0.8273773517370572,0.8541426038215713,0.876559678477202,0.9145010981314466,0.9570509683034075,0.9243414127030821,0.8486531894834682,0.7672699745047632,0.6834311293491727,0.5988962595208999,0.5170750889812125,0.4297957314267632,0.3744111440462893,0.4267480546594452,0.5117588698512304,0.5996939109212226,0.6839415599784265,0.7659796610826225,0.8484036974872294,0.9069795533085067,0.890710028565359,0.8680947336745174,0.8411877778168729,0.7960941793354183,0.7837385727552312,0.8123452197589794,0.8421552532381796,0.8512288701534464,0.8454724673053043,0.841314851069432,0.840636290469193,0.8346418727017478,0.815757520104952,0.7742226062898468,0.7386849589911991,0.7530038649800496,0.7939851603716505,0.8248529855013368,0.8532885285864621,0.8779595359620299,0.9092198698672759,0.9652680408692221,0.9546513620150853,0.8820715685407815,0.7996235693689361,0.717264491603366,0.6352192292985671,0.5510926393782906,0.4647866733706848,0.4134976511568581,0.4701295898303205,0.5577566054232331,0.6457705013008389,0.7336360273264485,0.8164038377750223,0.8923794294871389,0.931846442248735,0.8936045425813669,0.858733761601573,0.8240624002255273,0.7676515634916209,0.7424806357404884,0.7770764071771711,0.8220928445504893,0.8394877517026887,0.8473086959197854,0.8427427435071052,0.843152132026446,0.8407361744101677,0.8174798422470594,0.8157073321407496,0.8130360597646965,0.8142314382120058,0.8149042983005691,0.8067590098151892,0.7703422095509435,0.72614961057764,0.7063026858605755,0.7439308570693569,0.8020668146695603,0.8349383928400244,0.8512296777281495,0.8043191044148185,0.7225871511461893,0.6363485922118374,0.5556368969517059,0.46868457804133457,0.38067428772343737,0.2934310207304355,0.2125651298615595,0.1265957594732281,0.040942492026593946,0.0,0.05616277997722596,0.1359364862707737,0.22281078432671053,0.30827931780650497,0.3894524620083847,0.4768964902971754,0.5639325996798902,0.6446569895242963,0.729682475790327,0.8100300591599209,0.8794608207791449,0.8720526129831295,0.8467422905331955,0.8215699707566048,0.7913804602740172,0.7590213864028778,0.7191917292025353,0.6983439209031038,0.7250608385589142,0.7700202760977465,0.7997533806925522,0.8128706600251222,0.8127157767527721,0.81955975694202,0.8222870197643016,0.8151813593663076,0.7841093593073728,0.7495944118863672,0.7415171112027114,0.7798012332192391,0.823451591552555,0.8427681823467129,0.8224344295401272,0.7518485462488532,0.677689240159271,0.5907948150793098,0.5027823395975947,0.4151773796655246,0.3336558761623186,0.24867961175134978,0.1607403981083907,0.07630497234976341,0.011419559563273007,0.035749133294167845,0.11267841385696975,0.19868136379258317,0.2836613713745121,0.36517156050995314,0.4526054123200792,0.5353148913121853,0.6188885204227031,0.7036649537341287,0.7852623463300409,0.8669532238543606,0.8783341811508775,0.8488240076832719,0.8272456561821792,0.8000499856551236,0.7670053815830672,0.7307545342295619,0.7094274154827641,0.7309738632138952,0.7746347670020902,0.8047193745871927,0.8115704627508799,0.8190746260578395,0.8258276504930392,0.8257989934194537,0.7910412248755735,0.753431980781122,0.7419676226746129,0.7856966989879991,0.8390947370114096,0.8693138398810735,0.8829425110892847,0.8380744462054203,0.7574608080676802,0.6729777412316461,0.5850681211890248,0.5008970906260651,0.4187001701553167,0.3309380464385957,0.24318843993723693,0.16112335803640376,0.08083325990709966,0.05344282917649579,0.1188820345447007,0.20322311806580207,0.28467896584619556,0.37224839830520773,0.457728400541919,0.5388949180979653,0.6256736092756375,0.706687114649769,0.7910351023493082,0.8708723480689572,0.9181452564771789,0.88424116065096,0.8546001618147007,0.8274655782167905,0.7940380212060439,0.7576787206544325,0.723129231919308,0.7191205951707463,0.7585544095701898,0.8005299183607754,0.8187616294647263,0.8213630568612448,0.8272087082299487,0.8192849648590009,0.7906121176501385,0.7454775638216814,No
0.8666151904342754,0.8760609651257893,0.8636754418438586,0.8241045348254081,0.7754160385999374,0.7109066202709022,0.6495546473536984,0.6282244901085443,0.6748169613592796,0.7344668662211098,0.7862710471695205,0.8222815485689283,0.8263715364661119,0.8277121539830992,0.818995562595592,0.8063239830850333,0.7908246263733472,0.7316792620884813,0.6557275358121668,0.572516350654718,0.46884888678201975,0.371951909716723,0.2698838564260966,0.19126980012332506,0.2471751533559743,0.3425821480084983,0.4476230267257084,0.5472971536411753,0.6462967932526955,0.7437052404503857,0.8102259375641179,0.7898442781750528,0.734803702938783,0.6969761120035187,0.6493358511922951,0.6043677963959708,0.6201465525323009,0.6682152146686087,0.7005125732505237,0.719717913850761,0.7278609973158621,0.7410107149480321,0.7529519347227391,0.742852396876498,0.7491322380982592,0.7675643384794344,0.7666229619990252,0.76288183225051,0.7243509307428857,0.6626073216433745,0.6093962843442506,0.6293441301159612,0.6921556188775821,0.7509816001471563,0.8062464236958942,0.8457970237275019,0.8711804177551672,0.8737757807348836,0.8579231539599377,0.8497330270205379,0.8278798812362878,0.7707023479651287,0.6759275985625033,0.5801286016003182,0.4927282272873921,0.4230230877707659,0.4823447152218847,0.577476855985767,0.6756382640558969,0.7743082690349441,0.8634399179438783,0.8669900996767748,0.7977719496751088,0.7648706438817037,0.7267494140205382,0.6631394461929516,0.6349321847860354,0.6588411028772367,0.7000217092743282,0.6977813515108471,0.7042978593355138,0.7012004088427806,0.6637760339569647,0.6673442087402899,0.6996117982759587,0.712379566490263,0.7118500430826287,0.7001114456751121,0.6604073428557635,0.6107920578514121,0.5558957676186007,0.4966423688391961,0.48762972094701684,0.5389136978523061,0.6075780951912906,0.6703095319387806,0.7075512371903381,0.7444119734846275,0.7550735249486982,0.7629226867504042,0.7740750242068559,0.8041542151077636,0.8093204465792949,0.7688602672375184,0.672900558186956,0.5724259147624298,0.4794042064308517,0.46777944849570163,0.5631896262340264,0.6589803994633376,0.7563674380730951,0.8495527920029273,0.9417820155966572,1.0,0.9550526713249323,0.9336863931659152,0.9027589622911028,0.8485698614412645,0.8362839750610132,0.8648990753632817,0.8842044391562092,0.893461523331454,0.880756552036094,0.8435694301860623,0.7803361538366369,0.7586079111732325,0.7707647526179189,0.7699614546461526,0.7497151439789183,0.72044399728565,0.7007741863218797,0.7383900538832604,0.7978362231625518,0.8160793101555806,0.8024005337771021,0.729953536392498,0.6315864430998075,0.5358522680447773,0.43129555462029545,0.3304315847587149,0.2329216983540927,0.15508714103933197,0.18320806297553394,0.2801246388107863,0.380573385132394,0.4774399842728414,0.5729073485164209,0.6606923206989115,0.6736064555092902,0.6544319640590222,0.6372972213320502,0.6297529456819251,0.6092375452401129,0.5712922105760061,0.5207967959025175,0.4588149350248769,0.394799687064038,0.35223005060480483,0.3711022615244599,0.42765523511969716,0.48153319784042026,0.5368434716731123,0.5722774306415328,0.580299067162279,0.5774425401923509,0.5614590437400215,0.5415630649793819,0.5486859422739712,0.5689643578248353,0.5669280713152012,0.5720025367132036,0.5484669790524954,0.5133008292939398,0.4914828632190411,0.5405893462025322,0.6036626619441745,0.6460801013709871,0.6657295480919796,0.7166120888905443,0.6699470452410217,0.5748927113198707,0.4695031648644621,0.36906948442770915,0.2715180369485586,0.17548405275540135,0.07599269862260005,0.025148154105644194,0.08496460497583835,0.18757665407271196,0.29044299669829265,0.3867479112524772,0.48415617326485716,0.5708999353513593,0.6565436033142387,0.6909926582630952,0.7106617748534583,0.7307530452272171,0.7338896346976398,0.7062422782263984,0.6710350365554651,0.6160864439423595,0.5534221325824915,0.4980601952794368,0.47271478427498037,0.5195141609263327,0.5833844820889924,0.6226118345408707,0.6345335289978724,0.6324435298991746,0.6107439755136426,0.6102191702525608,0.6246604912710305,0.6082966205544182,0.6042835758545131,0.5903716536628263,0.5657398600197174,0.5206440947962632,0.48666671226795266,0.5018852202391968,0.5522470507187922,0.5943211182983408,0.622450370680987,0.6689177242714508,0.6624825161601922,0.5642904618938944,0.4671881815128338,0.36523494360087794,0.2589908133789358,0.15381884498987297,0.060914622780444905,0.0,0.040561250207601596,0.13309936610396367,0.2351809672077818,0.33292399328807587,0.43406001304473607,0.535366335602292,0.6136415443135279,0.657092228238275,0.6686319996715295,0.6827268281097116,0.6859496413206396,0.6835421669672339,0.6710380247872898,0.6289269037603571,0.565458772542609,0.5100983819928993,0.48659729470757984,0.5206174625874751,0.5838013627181446,0.6441535329620347,0.6918042734806193,0.7344017552406918,0.746580933749803,0.740553334082545,No
0.6291104793499143,0.6457689819605852,0.6709895290511643,0.6791304730509404,0.6660114185573658,0.6322359328728719,0.5683759406593758,0.4784683733610926,0.37773271888521887,0.32408795724633865,0.3707834883852046,0.4519682049549232,0.5245293803374471,0.5903651216929706,0.6486858858893472,0.6579063418409934,0.6592979747217349,0.6937329697848957,0.8003492924978719,0.9288671116223881,1.0,0.9271195306183762,0.7826954042837091,0.6279860746876746,0.5791531408189732,0.6560367352487875,0.7034889992887301,0.6952695670462408,0.6527975203153664,0.5590655697492464,0.46825080492823545,0.4586293781878972,0.4622781458738787,0.5312262278594337,0.5990568078749616,0.6710864222505313,0.7204341495444684,0.7027172320519783,0.6887104860748625,0.6739812942531165,0.6886031466235707,0.6804235776782175,0.6898898595451852,0.6786494600678621,0.6828618353365847,0.64912398690708,0.6042667693594499,0.5282975161780827,0.43625654355257204,0.34645832508836794,0.3309020665344953,0.38550542537039956,0.4508412521112142,0.5177998392438816,0.5623691936350328,0.5848984164751494,0.608347762021598,0.6632780504153537,0.7701327659205663,0.8891484647533119,0.8818391801348282,0.7580512832455524,0.6264980550171293,0.6066343589287966,0.6772029218799887,0.688020367152804,0.6886464754580395,0.6360909899924456,0.5410382573315582,0.4693703492722703,0.47079257180439615,0.5380075725243065,0.5695476999238158,0.5711605299991867,0.5759887838082589,0.5658392148786087,0.5507617623590493,0.5609566207869472,0.5830126495216099,0.6035289491889388,0.6352222058636263,0.6107637638886905,0.6029140242536108,0.5613511355574436,0.481155236173076,0.3956849461845984,0.3109194574510914,0.3151718848722034,0.3740274625826281,0.45409772505366064,0.5165579004033738,0.5619241880138031,0.5941091686265283,0.5923553008865099,0.6427421657589099,0.7439232486699048,0.8637839026074943,0.9349905702146319,0.8629941603928417,0.7294078751412725,0.5978557529835955,0.6087598562676151,0.7121580179503555,0.7462876151169819,0.7267505691914264,0.6989054928777918,0.6323932842476223,0.5471599099967142,0.5455750928392815,0.6041079092820363,0.6586976185816056,0.6627725600482677,0.6620229829478133,0.6335433408266677,0.6214959230742227,0.6023424439261076,0.6016033498423567,0.6292300150076251,0.6423736374202962,0.6620997968373343,0.6527510331609845,0.6383040229347996,0.5851723734783656,0.5264906864975218,0.5254303903706781,0.550991185112049,0.5420028574599209,0.5251333738474395,0.518582206485223,0.5042240687835626,0.5162829132360631,0.531594644159088,0.5476774961582995,0.5458213193674606,0.5292365652406259,0.45231508923476493,0.4167189498596855,0.43395561441632413,0.5046191577922903,0.5867789222488655,0.6338105240391414,0.5908745070929218,0.5117969124187436,0.3699923377330201,0.2092202257422926,0.07357260990847259,0.09113311293729076,0.23318839080995257,0.3898864212610471,0.5234621375573569,0.6527006482337976,0.6946497020341873,0.5975635441904839,0.5206793831866738,0.4744157303277259,0.4679904495950691,0.4729004617401582,0.4229197155324318,0.3502663844300118,0.2830438961068662,0.2096587749718033,0.17910462056312593,0.23519831318154782,0.3229587221976331,0.41758350948977174,0.4850519632420651,0.5119844834008305,0.5129072721994472,0.48507239004634073,0.4810762443583849,0.4706062209169808,0.45900246135154354,0.46746843217486234,0.47624843381161863,0.4653754698712671,0.4512836110350049,0.3965029835862328,0.35037935121984365,0.3781122606646008,0.44144326827348745,0.5417282000046217,0.5972753333668699,0.5763715110519092,0.48769481019461125,0.3296522977490266,0.16057602854118702,0.047060313057237124,0.11572484111631987,0.2700666488607819,0.4160626799931073,0.5486773002872285,0.6618530554386108,0.6263945466592862,0.5325255708080423,0.4982155644268742,0.4843085203387121,0.45709516545886686,0.40421748836862825,0.33628124185381214,0.2593355843620042,0.20757179853679908,0.2277209349728162,0.3069131232450264,0.40510130363694774,0.4935656736376952,0.5482085384926316,0.5611115664591599,0.5773699554889475,0.5822421943127329,0.5593564748217661,0.5715282969587436,0.5766990030701677,0.5601730177307118,0.5805466237629195,0.6165251676517407,0.6027787916012901,0.5260492418027489,0.4613777379063526,0.38514402494261724,0.3271675268147991,0.3213128333231241,0.3879612320590944,0.48883162227575294,0.5746939593316789,0.5735410818955105,0.512900133532666,0.37581840955333057,0.22472956888375162,0.06732796135992292,0.0,0.10313897505688718,0.270590954425578,0.42299336131275034,0.5680816936531103,0.7003287519264747,0.753059816155071,0.6539757560426587,0.581924726365898,0.5487238226555053,0.5306887353828298,0.5156006529413144,0.45324699581174066,0.3810732303160824,0.29716091520744925,0.22720866927141525,0.18074639640800427,0.24008785629745066,0.34321033184955496,0.44339480473741766,0.5257896369311101,0.5704082686318275,0.5821231368247775,0.5569118619582332,0.5533611709859949,0.5316686369373107,No
0.7535751650572118,0.6970201797917619,0.6288859118961445,0.5855764287994389,0.6125444180898632,0.6694484663243039,0.7209369797102301,0.7636017831871975,0.8032481910311866,0.8093966835338386,0.8141740972745277,0.7904891404575431,0.7388262456549193,0.6583684871812079,0.5696222324857951,0.476368361413136,0.3739930605722106,0.31217754822570076,0.3809272747587966,0.4905966845876788,0.5908983261224778,0.69076081318429,0.7846572147128168,0.8621810543897157,0.8662941597398393,0.8191180551311261,0.7877943358946637,0.7375245214707216,0.6865028787182024,0.7054780446273619,0.7360977222180145,0.7627214956473185,0.7668737422764067,0.7668801820182625,0.7636063646650391,0.7512778908631439,0.741729507068815,0.7363459373460894,0.7246345921328492,0.74101973015397,0.7436619762861756,0.7534587124772665,0.7547553419975885,0.7177776767483601,0.6596200436800375,0.5943279979852798,0.593287436257788,0.6654375655014249,0.7265105222467938,0.7755585345537621,0.8215192110875853,0.8477643892640516,0.8608888989059864,0.8597359368921802,0.8275819275549943,0.7611696105251402,0.676082568710137,0.5880576654568908,0.4977004771646143,0.39465612228193137,0.34772435340037133,0.4335705493766453,0.5344524591479674,0.6434108702139445,0.7435428675145894,0.8375012614301893,0.9196855719327177,0.94545728875849,0.9159798021555992,0.8804302935255877,0.8173452145265767,0.7757469100096104,0.7896407788459003,0.8373588225913744,0.8568562955024388,0.8479799649430537,0.8319528647732681,0.8229531650917752,0.8259405249371803,0.8173063424539804,0.8054156553215328,0.794911782499774,0.7937300637323645,0.7888611502942309,0.8028689104773947,0.7870353078568535,0.748696202764475,0.7005855879321514,0.6354227266844334,0.5702836444395827,0.5741429140993712,0.6270119439176212,0.6898301455799343,0.7406431298690224,0.773359770056419,0.7931747989631333,0.8061077942840622,0.795588724266574,0.7542621172266768,0.67491536766801,0.5842343117773579,0.49736444433851923,0.408007961943577,0.3216927413553148,0.34256165879822986,0.4435900515398197,0.5493858372374361,0.6533508314030725,0.7567501296061458,0.8520283900119858,0.949208571906422,0.9999999999999998,0.9700504024902517,0.925443023545711,0.8745723040716313,0.8247899244534771,0.824014976574879,0.86699093774919,0.8867117118225993,0.8823831218334666,0.8771403546465713,0.8488748296894608,0.8065825156119992,0.8221672178462589,0.8171496392416218,0.8259054852407226,0.8066670210955309,0.7647709428047695,0.7618746644550971,0.7959296139800001,0.8547874772343909,0.9046181523843366,0.8908002100146104,0.8008036935573413,0.7028182303698449,0.6105791129596339,0.5079464349040903,0.40395391997572294,0.29791641448825845,0.19395078000814414,0.081781708092447,0.0,0.0322662812972756,0.1264818202227913,0.22523430085086615,0.3229861726123773,0.4183277418198357,0.5086390021225877,0.606189829802559,0.6919662891782046,0.7423709483977736,0.7458286770919476,0.7336982528364924,0.710643997705598,0.6675354088335841,0.605446318093285,0.548969738572678,0.4987144534840946,0.493736570425906,0.5536444184286411,0.6159413885315141,0.6787663324182314,0.7238979240231564,0.7392301726868051,0.7328760551243338,0.7363958044538694,0.7339007853653154,0.7493524844047215,0.7654485050338595,0.7745219825923899,0.7706664403768329,0.7862189264437471,0.7821642639828392,0.7770495792278271,0.7370166922601087,0.7090453773754051,0.7229175618845398,0.7772455269359047,0.8379825089773074,0.8652249781132693,0.8218203105589479,0.7333762783864632,0.6346056720039679,0.5281336105498358,0.42459603720922945,0.3182292394817996,0.21862611100951734,0.1393774721536125,0.09356104089948425,0.1660631908579664,0.26232854850382226,0.3599947662418639,0.4560218408050909,0.5469972870700037,0.6348034839364611,0.7210390624902037,0.7875543416764506,0.80804759403816,0.8020205102782223,0.77744851005957,0.7277240611552516,0.6772444832950921,0.6191099641941873,0.5421635048710256,0.5050500376024816,0.5368663673966776,0.6068544398137876,0.6647535912193738,0.6957512289497021,0.6898309528857538,0.682256629046684,0.6741280936610472,0.6667509093105635,0.6829227792770973,0.6875750588298402,0.7000263870021943,0.7050915352061493,0.7067010041578403,0.7118845326135743,0.7166342571437203,0.7045251128744099,0.6690004623428332,0.6391495935903893,0.6396392524143348,0.6905371988857552,0.738083771651618,0.7546375891053179,0.7626450365060726,0.6850306714227419,0.5854498815711493,0.47998677454353067,0.37646992182161365,0.2664754645235907,0.16649534026400903,0.08632036352695205,0.10440935295707132,0.19937639522847062,0.2994847327589534,0.38048605361257937,0.45991318204264187,0.5516699783207366,0.6385818913596337,0.716884039643422,0.7615380948187289,0.7568536934636512,0.7477775823479351,0.7160544318912312,0.672853953823086,0.618961718863192,0.5638215309537558,0.509171676398313,0.5105103893908505,0.5572946979398228,0.6222284173634962,0.6884599245031626,No
0.7935235312738103,0.7804203710722524,0.7898984413045222,0.7680039855615681,0.7379115590797167,0.7587164886529001,0.7516960611629742,0.76533308238474,0.7632087723462737,0.7736088736971696,0.7502784351582852,0.7405783476366339,0.7002486063236883,0.6265999030444078,0.5517903831073334,0.48611085452147274,0.47869465331086536,0.5169917685928511,0.5926496444349754,0.6382154687712678,0.6764228634225078,0.7207650674304529,0.7536723718093876,0.7964263319776035,0.8651629379593264,0.9538859353418476,1.0,0.9313927154981969,0.8259982229900737,0.7085889350235655,0.592407736106916,0.4830570128138829,0.5132726936370777,0.6340811046883399,0.7477435335366738,0.8416118521431475,0.848769482872334,0.8243045082112936,0.8304650991176397,0.7975230234619501,0.7423962685204466,0.7356742891648036,0.7697586249290165,0.775303541576827,0.7888261230221678,0.7872484647757552,0.7899334656142138,0.7742350931674125,0.7796683976605823,0.7797018834844311,0.7689790013385904,0.770961075594871,0.736773108054916,0.7495461890681709,0.7409953924857362,0.7817461912617043,0.783278320944933,0.7737066528023813,0.7733073602818199,0.7570999857648717,0.7046100258572943,0.6287699762618408,0.5490007824451957,0.4826448144936575,0.4864775532126546,0.520875615217185,0.5847359071568521,0.6436026883357315,0.6868890032944432,0.716046221808992,0.7371509984787417,0.7516122287025753,0.8211135578537472,0.9153636734253201,0.9609425932267812,0.897618004675127,0.7866513687822265,0.6714207589316294,0.546418834042186,0.43505103294513825,0.44994980464187595,0.5632400553254882,0.6817765541123433,0.7774485574643504,0.7943149523951547,0.7908909584083164,0.782935084817197,0.7790800802001643,0.7171437476269178,0.6982643005654947,0.7047227674962517,0.7466835209304801,0.7664480510180938,0.7757111568168984,0.7944647841061787,0.8147914683856454,0.8427211052323629,0.8136470192865746,0.8146905493979442,0.8296521698666335,0.8007402014965179,0.7780745618207137,0.7773276716807787,0.780297533521221,0.7534819531770975,0.7714621425240273,0.7782565242497754,0.7886640718712368,0.7726273570424227,0.7358704279559967,0.6686447137063025,0.60674621296653,0.556403821089793,0.5475392750143175,0.575047271148442,0.5587522026482854,0.47803251986698214,0.3620914791033485,0.24245486805266703,0.20203522905037907,0.24911306792382026,0.3660985719532084,0.4288389948023186,0.3629417269682427,0.246990466891726,0.20143157162858305,0.23240424080450683,0.3451712930600528,0.45494539129453404,0.5285133372774147,0.583027041479165,0.6495409526057787,0.6961615827131431,0.6809665291606213,0.6890198092969753,0.6851702835636813,0.6753001423829521,0.6745444498562843,0.7011364728355378,0.6990877099861805,0.7000354676663081,0.7306503270308853,0.7332174778823579,0.7347191048252446,0.7469519938212721,0.7429066797716581,0.7213800568514768,0.6913255846375015,0.6663518476351094,0.6651629241648833,0.6224947468945339,0.5827729648014266,0.5878259272731263,0.6348875843034771,0.6968581301667478,0.7080677185840547,0.7045171810352833,0.6781802389098295,0.5715662310718619,0.4561976340203766,0.33543176527793683,0.21767993813799125,0.09363485786683823,0.0,0.01794252933856244,0.12860977258314454,0.2441658237591473,0.37240629556689653,0.5022717171136986,0.6226509022574169,0.7420081456134668,0.8354658804383432,0.7919226736729068,0.7150618232010726,0.6579461748861943,0.6535746386162633,0.6106634986715687,0.6002680049910007,0.5717747266736599,0.52914352892514,0.4626699868681734,0.4186943487027319,0.37554995590464824,0.3908951169010719,0.4577850475821301,0.5333548231556544,0.6114602228427897,0.6778584013327906,0.7050172603244427,0.6998689797456508,0.679744329315926,0.6826025599100825,0.6679041706921751,0.6816027602614954,0.6686961143596593,0.6966384803937338,0.6973894366025033,0.687837636501794,0.7052825009732473,0.703886965407726,0.7039933997455408,0.6967140172161357,0.7063616696445894,0.7097800842048572,0.7025113824580456,0.6762658200578286,0.6335628744826423,0.6435745264295178,0.7096283646535144,0.7558991655187044,0.7281184200609401,0.6946846840710381,0.7371165650767626,0.7277340589614032,0.6100089256065737,0.4814374815166498,0.3654176532029467,0.24098106524105045,0.12790037364054996,0.060730524242486705,0.13033698636127644,0.2457692851752995,0.36873522107683465,0.4843189887629573,0.5994212034890416,0.7239294461435763,0.837548337676445,0.8850802256078776,0.8046167619930715,0.7417352363528877,0.6767220950269044,0.6362736873953851,0.6216821609611403,0.5906896476946888,0.55862214677453,0.5010090340179625,0.44030948926777924,0.40405424693488357,0.4042889120671922,0.39240017915024117,0.45899898535062356,0.5356388157419083,0.6160006756563496,0.6656192312224887,0.6767462862953275,0.6880931644919057,0.6739196346926977,0.6543234460005913,0.6501891832253777,0.6763845777243827,0.6844961824088736,0.6762902220269655,0.701025085313157,0.6769970959835963,0.7179225401348268,No
0.9116725315581105,0.9122850582564144,0.9351256810658832,0.9627079586458722,0.9665730433398638,0.9407273231002387,0.8902657630468196,0.8247598765307076,0.7507239147675924,0.679646480849035,0.6488093498826977,0.6975539645800264,0.7636509560689231,0.8294865534726006,0.8790232752497957,0.9168861691630059,0.9414687601578173,0.9480123304608223,0.9216942248748043,0.847790454266004,0.7553431183543899,0.6756457332867589,0.5847392490862127,0.5075578358102748,0.5734501651669077,0.6856761131020785,0.7887688559363515,0.8932325211857097,0.9768948243683828,0.9966212690928498,0.9808202428323127,0.9412138478560343,0.8705524146500785,0.8489558587520818,0.8965784722700867,0.9416616821192687,0.9496727463106656,0.940488404065442,0.9236557873033273,0.927158364328551,0.9162031431014845,0.9084664179467092,0.9370931904188791,0.9655723468107646,0.9718144099712107,0.9436132942177833,0.891511244392549,0.8185102553416492,0.7413271567191229,0.6667154436772986,0.6157188612883766,0.6513126297123908,0.7144902522505234,0.7837031194798258,0.8412072190781841,0.8797277416712961,0.9065787118552457,0.9284946489299724,0.9193004086586296,0.8631211113654647,0.7736785276013507,0.6804607797451026,0.5865618363088021,0.5666453125512334,0.6552831510812951,0.741551213866199,0.8432495166776406,0.9389379308111734,0.9849383679139965,0.9794769159848105,0.9503819373072113,0.8882845546553126,0.8809737238342887,0.9300846793608979,0.9664132548159288,0.9734748445221115,0.971421543165649,0.9655613201173143,0.9478149697460692,0.9275212240669541,0.9294468133051168,0.9568340011424532,0.9888111089539444,1.0000000000000002,0.9628390260794031,0.9091721688381751,0.8375751117893573,0.7653597542525838,0.6961730520461977,0.6369808298661719,0.6555669144576266,0.7150890421398433,0.774133054959395,0.8321160421174227,0.8748485325443827,0.9012996467113987,0.9192901798654065,0.9164010554417559,0.8649627728989098,0.7810205225149176,0.685447059192591,0.5831077483120544,0.5076138906409813,0.5717093593068483,0.6748958481473923,0.7844386747238399,0.8868379882979107,0.9713783354667733,0.9884580625437509,0.9819055663880778,0.9409575529543008,0.87422054722548,0.8702199774086548,0.917821995549496,0.9558583438587058,0.9549433940452732,0.9210074715394272,0.9010146936788253,0.8728050605780842,0.8252773189722096,0.811886629720209,0.8617088071817658,0.925316269961838,0.9295168555439848,0.895948423490377,0.7961165188560841,0.6929608112941901,0.5842961162515479,0.4800911701408366,0.366679409392739,0.2610509046120508,0.15300825920711114,0.04407703207858882,0.0,0.0758534180032302,0.17901143969194844,0.2925723431794218,0.4036124432102046,0.506832295225742,0.6125394180718768,0.702850516303011,0.7912892285967044,0.8623928271219639,0.8673418512771598,0.8473506425506281,0.8125852873193284,0.764214064224144,0.7003987697510563,0.6392102406284328,0.5879031702380455,0.5767980877765913,0.6304138731842779,0.7004209241400636,0.7757965638772026,0.8460088305149271,0.9055474573587767,0.9386258781279226,0.925754385467356,0.8939470617827727,0.8703537583168199,0.8819651362780385,0.9064764064406055,0.9140514056414395,0.9208404082138066,0.9257796466296357,0.8957181979625937,0.8478669861571475,0.8125949541290354,0.8406810743382713,0.9048782400523192,0.9342718498231355,0.9017258650321438,0.8058854581171551,0.7032758032456001,0.5935052354056791,0.4881811275095169,0.37981364189998135,0.26604723294193433,0.1613227094297216,0.05668603614163947,0.016830902611335352,0.09611433659771529,0.1985883466906888,0.30379626369734236,0.40904509906202313,0.5229805799583549,0.6335850171487685,0.7250309963419366,0.8100318472715402,0.8714073896348762,0.8700452918875679,0.8538602551359011,0.8172731252113048,0.7727550100723708,0.7069818279934215,0.6391180171944375,0.5792162512478389,0.546456217027574,0.5822715167980645,0.6490450217694745,0.7259069432321004,0.8072591267064164,0.8746211341068488,0.9123206855683315,0.917958116257892,0.8898618435141559,0.8584230092470937,0.8628389671988093,0.8781812229475483,0.8832460758579128,0.8934455473586114,0.8975825094702923,0.8788520636460195,0.8288590582083273,0.7909268847167199,0.8040792731903459,0.873491794162643,0.9345846578376305,0.9329968483536282,0.8587617779078947,0.7525070348943219,0.6492468399684699,0.5383926832916315,0.4306710220421841,0.32473134494884337,0.21276813240428605,0.11125040720608026,0.045549096025748526,0.10189123268462952,0.2072246702490701,0.31181732384818184,0.41881663076661924,0.5250267022797057,0.6376827048095606,0.7343373158282842,0.8226678623868839,0.8893400970844894,0.8940616761259721,0.8886737298862226,0.8600284281116461,0.8103353302916745,0.7538152249349424,0.6817199143406991,0.620187342332503,0.5862545217762933,0.617007038965993,0.682992943630764,0.7583390501995517,0.8308960118856932,0.8873132974029143,0.9173705275048294,0.9055368051565684,0.8751310448823857,0.8610715881316742,0.8682698192470026,No
0.637394607615791,0.5392065406933342,0.4279585622907125,0.37911860975167366,0.42145904527648126,0.5198248060633635,0.6234984944221114,0.7041593459349476,0.7725536032376894,0.8160307518653771,0.846430885026141,0.8646109842739813,0.8600111086297932,0.9467169726330047,0.9309043459476918,0.8073167207175325,0.6655820365542664,0.5251454553085133,0.38353006326408456,0.34567612557496963,0.4669792690868051,0.6095070871257104,0.7474707114689925,0.869002856679665,0.8810653618409736,0.8534661461842656,0.7960469673852173,0.7060716032051264,0.6780407001802073,0.7566089028726117,0.830001671531849,0.8598897855944077,0.869345248038675,0.8650320578057298,0.8840837182193964,0.8285637388961811,0.8506431773285925,0.8376291651409802,0.8410710940674475,0.8617239922434865,0.8709751552399827,0.8699482879683815,0.8402495140843835,0.8449095534175668,0.7697825396652722,0.6709871051235758,0.5738250674764771,0.5342411776169556,0.6061120417363233,0.691902480536922,0.7882582531718336,0.8399439612333408,0.8728160582698905,0.8837299893115227,0.8749201106913111,0.8752475475185868,0.9706291827395774,1.0,0.8895739242677814,0.7528016555459476,0.6048580908537469,0.4685597062576323,0.42098784929202315,0.5399806011361528,0.6848290238842729,0.8309761546645933,0.9086363055651985,0.8891742737753185,0.8588381957892763,0.7710357691781513,0.691122699667222,0.6919685558148787,0.7692293475475838,0.8315314087625265,0.8113951199639775,0.8103680989967392,0.8196006361122858,0.799123779585337,0.7738062390438629,0.7998397630239942,0.7735434064285189,0.7515636787916518,0.7582460942156644,0.7841701413358462,0.7977482998016177,0.7916992934604488,0.7307078472746262,0.6649368298180369,0.5778120939129225,0.4719421137676796,0.4335695823461645,0.5069437895713955,0.6066523123083707,0.6884661906232394,0.7451443252123742,0.7567976843239053,0.7771963820198704,0.7830156113156082,0.8275375113752128,0.8209900476947798,0.6984952404777407,0.5582522340199887,0.42479489216201527,0.4144315843386388,0.5370151219781891,0.6683460688624008,0.7917276934002855,0.8214695021856624,0.7825796538715677,0.714162365545024,0.6252482688140297,0.6260251968868085,0.7065777675293585,0.7661834764652062,0.7621776849437167,0.765057570439974,0.743950019501737,0.7743528771378894,0.76167447745887,0.7748985610051702,0.7674752056541645,0.7604272814063422,0.7654930698345761,0.7228624793410616,0.7318537918394066,0.7037712828001537,0.6266195488762967,0.6070739361762909,0.6515297213269249,0.6695383431071988,0.6705506269102575,0.6845613949759666,0.670192094998963,0.652059666974099,0.658505613564579,0.6622308313601382,0.6449119841791262,0.6017797080253007,0.523641089777537,0.45802403104142364,0.5136855519107986,0.6092797950434847,0.6924247150828342,0.7306829521555,0.6624239762159312,0.5301070529119576,0.3843569683788166,0.24302380278286106,0.1070986042863229,0.0,0.041433618665720484,0.17302513004047304,0.31710532278451264,0.45785577855480586,0.603060172044779,0.684129431158361,0.6958660469566045,0.6839037367530625,0.6558465262259854,0.6393066926319744,0.6249395689954245,0.5475674114353195,0.4555687683173879,0.36072417675300583,0.31409438111248855,0.3721820990363569,0.4701388689220831,0.5590713412718973,0.6339882722999559,0.6970021056400939,0.6845937100541084,0.6670673306270736,0.6503845995170119,0.6030776037182259,0.656903688533387,0.669345239712559,0.6786410249203692,0.6900651696576392,0.7144374070545507,0.693420597692056,0.714410287377985,0.7306427961480289,0.6654589423253943,0.5852539261577085,0.5345889043731513,0.5960833856820598,0.6948931378880969,0.764608448015526,0.7791505825556775,0.7598695894215002,0.6369264307603313,0.49659921419386244,0.35821185726637417,0.21616458070256295,0.08059278359825672,0.047972149021406896,0.15380224360600003,0.2957641748257287,0.43355189253687954,0.582942269292988,0.7261751906470644,0.7695931078230172,0.7655447703358367,0.7755444239295852,0.7624862326751951,0.7288583929796442,0.6643083806252439,0.5725805234725154,0.4902410835347899,0.42475678061268507,0.4615851585613284,0.5578256542552777,0.65143080845308,0.7107939317831384,0.728156099065564,0.7528776704407805,0.7281504674128425,0.7248206289377439,0.7287284607679552,0.7488346523311837,0.7337689027278378,0.7609313759379539,0.7793472873201348,0.7842220700639877,0.7414559621446606,0.6619444538502712,0.5813503114675749,0.5607206794147395,0.6381290226751317,0.7248380289554852,0.7624035062009193,0.7252637211346533,0.5866972670849435,0.4350384281328066,0.2965773827724618,0.16108708499437263,0.04017447088729442,0.03238777365404211,0.15718634883068328,0.29590978627962894,0.4419666634276447,0.5811724100579827,0.7194062808919512,0.7466805309942552,0.7498055609979897,0.7384719235205033,0.6964798686802749,0.6247678127787384,0.5418388080125789,0.4502959139248208,0.3476921684783587,0.28876848577357483,0.28956132692186687,0.37577554480750663,0.47712245631898975,No
0.6937542912203352,0.7115767755725972,0.7531469436341549,0.7838420023182189,0.7837002378519027,0.7763787943186964,0.7570921505140817,0.7348062879588859,0.7239566223129983,0.7408348092877675,0.7517765863063612,0.7449900077084703,0.7270722898128992,0.6905521511442663,0.6413777484851644,0.5960283118139853,0.6037579518756391,0.6358656758832617,0.6608680280280135,0.6858618367947216,0.7049629067587229,0.708701742870494,0.7144738457809305,0.7116270910362719,0.7181384729336169,0.7654586760656739,0.815093473555164,0.7679803815470567,0.670154716010054,0.569344193136847,0.47765217546719363,0.3851441264066424,0.3811728161842267,0.47346704386822624,0.5624867704770926,0.6482064358523054,0.7092851347112785,0.6948452570863797,0.6672246760520641,0.6193554811559436,0.5547885971605497,0.5292128908014284,0.5772578162550914,0.6176211356863681,0.6327601392671118,0.6258628819569902,0.6125768310958137,0.6211326162964244,0.6363351034869993,0.6658672086768225,0.6992934895057958,0.7118103378361966,0.7065569266781409,0.6754085299682822,0.6376654760145883,0.6242607740217712,0.6645057460914363,0.7172613689566618,0.7563967115478292,0.7911844414234777,0.8252508534828191,0.8512546077135101,0.8755319660442522,0.8835184254511392,0.9068991846417358,0.9635156845546722,1.0,0.941759410834087,0.8490787783433933,0.7521993525170028,0.6584370816458693,0.5629748733842628,0.5512238662550755,0.6374088203502892,0.7122815428343969,0.7943283974539082,0.8490006558494212,0.851654415392916,0.8190000433126734,0.7676772803360805,0.7112562357724355,0.654022756277814,0.6746714620178977,0.7147333356237353,0.7571884907986672,0.7901123214526118,0.7895036636247506,0.7868263497731993,0.7979358315466798,0.8053667119777681,0.8109899025407099,0.8242434938821956,0.8072623278771203,0.7695723361370108,0.72653225623589,0.685596833273312,0.6918927953716318,0.7226756078959355,0.7560715119056565,0.7764787845911028,0.7994274937133796,0.8147495332732673,0.819530006830719,0.849144077506121,0.8845879762606801,0.9550161902715124,0.9967648983603428,0.9340606657828809,0.843375794772772,0.7518131330178819,0.6584547276454229,0.565837002600833,0.5511702978076007,0.6340761599775826,0.7222438486509022,0.805113737302845,0.8173723249956639,0.7922981693532396,0.7683764693284618,0.7066831345381757,0.6474024366822171,0.6769450493778306,0.6990385678181679,0.6989841904438614,0.6301552605042087,0.5805713985909069,0.49860411155132534,0.39778870977618963,0.3309786259528329,0.27557462762007723,0.1878307687748857,0.10636931294246921,0.12342477848702171,0.21414875231400443,0.3057683509202984,0.40449538440566357,0.49626853852117314,0.593548463116158,0.6862187473170271,0.7855650275884147,0.8239158430928515,0.7696094567928347,0.7381097316974721,0.7155511085949016,0.7134932502887961,0.6937675991326553,0.6813726857644014,0.6570617265852707,0.6387428266100752,0.6075397069012429,0.5871416347105058,0.5977424962874549,0.6479922120909878,0.6878375885825121,0.7216566884010494,0.7302027810370717,0.7121111039978687,0.7070732497195968,0.702968452546215,0.6957204012728355,0.7035830763058657,0.691096982966104,0.6551531250235558,0.6102752519071886,0.5606018848388157,0.5685554348978528,0.6204667311977325,0.6902537161700648,0.7397948543369353,0.7732896363974193,0.7285108259147308,0.6386049165477719,0.5401331813298005,0.43994250706375215,0.3481208009161252,0.2480683190754034,0.1828710898281518,0.22859575585878544,0.3178579846996701,0.40851741925362584,0.49988201158454304,0.5969840417852494,0.6938695517083842,0.7878880202378511,0.8732502809239566,0.849252107199288,0.8058527373252233,0.7852721553739301,0.7740174886908706,0.753086257069949,0.7258542752131452,0.6943329667583202,0.6581762225777426,0.614862471531505,0.5609961291074774,0.5283222094777273,0.5423954916749918,0.5882155177461055,0.6154361329762894,0.6213114138920228,0.6030284726360393,0.5698444015255086,0.5419615799982656,0.5341727800105946,0.5280703458814888,0.5332892675780871,0.5462355879550538,0.544162367813283,0.5024786108876507,0.4577164333250221,0.45055724729216484,0.5015632887609236,0.5633606983669459,0.6019863479456773,0.5916301560080641,0.5125071392459604,0.4222760026444279,0.3236754541951803,0.23184750349801408,0.13174740495157922,0.03727338223641996,0.0,0.062083406411831854,0.16001250379860776,0.26180419582214487,0.35430049890881676,0.4492733414293748,0.5418559724081935,0.6327819091754416,0.6502680591544041,0.6154386171996444,0.6180239753715879,0.6234608809718432,0.6176865122706268,0.6084070464791953,0.580393704873444,0.5405773053028282,0.5127550058325818,0.5059397684134903,0.5457940393116587,0.5968752609296653,0.6407877328376648,0.6523262432384063,0.6663326928475395,0.6653139676692175,0.646051271943338,0.6447097291275607,0.6617570552041969,0.6785455035102363,0.70048397209588,0.7095904155191008,0.7053374313135294,0.667892171581201,0.6295002886778138,0.617198092421726,No
0.9068854443111709,0.9145178579986548,0.9081062371921842,0.9091589618802769,0.917620684056637,0.9301690527089348,0.8990089191243502,0.8433279310427388,0.7845474010369009,0.7027446473142507,0.6071510897324268,0.5425146713134366,0.5812177254712276,0.6457096593822351,0.7249882488885673,0.7945045815620033,0.8437460119285829,0.8833164977405814,0.8879379069539413,0.9055124875630227,0.9047580555417949,0.8478464633458218,0.7609768422801979,0.6614778766602525,0.5536623229897608,0.4406101691867308,0.43208642910832396,0.5366032901065028,0.652583160931222,0.7645384003126452,0.8737313968375942,0.9610308514206878,0.9848593538456942,0.9800278325478118,0.9522520431725874,0.904448706210558,0.890107395987636,0.9346129429554875,0.9450661855353739,0.9443155021690646,0.9417538164407775,0.941624249435729,0.9191168362364768,0.9263866583131404,0.921367511771654,0.9076126114759928,0.9099458096499178,0.9141106443628533,0.9008750484991266,0.8941559853088115,0.9069005223629096,0.8964343972385724,0.9031013422327563,0.8974567817628709,0.8572733787711062,0.783118617342625,0.6981146926199022,0.6086822632724598,0.5438465080692407,0.5759805535185074,0.656860140493539,0.7258546988725674,0.7908837504559632,0.8333091571946345,0.8764879115696296,0.9058704169652021,0.9072622088054425,0.9077095509902957,0.8953768764535042,0.8183802557656716,0.7198423970240655,0.6122465513720607,0.5006576337284709,0.391507457174912,0.31439184701110134,0.3865840853031459,0.5035999744925403,0.6265220567496286,0.7445933852209601,0.8461154060111236,0.9446742308846008,1.0,0.9975352847684822,0.9797093320106707,0.9376662417765398,0.9074552709895736,0.9361156699574202,0.9497395958181798,0.9387148070664986,0.9478251482914528,0.9570068257113475,0.939583788120594,0.9224889862035255,0.9157010268400301,0.9062612618930985,0.8981986198426335,0.8984367247870115,0.914090735088533,0.9241482744212601,0.9210220909208555,0.9099362541285809,0.8421308692676597,0.7639814037586299,0.6803540046834113,0.601946121549068,0.5893523648686365,0.6503840508452967,0.7282197430134314,0.7938673857859015,0.8567676787626155,0.9001702707002885,0.9235869722993453,0.9301460112624538,0.9326784844780338,0.9050988520611507,0.8243067018815045,0.7180896193119315,0.596501724434388,0.48307737520103844,0.36841019073724546,0.2567522988422035,0.1407275225957485,0.03993293269380871,0.040694850572962515,0.1507997455913408,0.2603399491691252,0.35799394035710375,0.410320232407825,0.5199992278190839,0.6388594234001364,0.7137154415131395,0.798281954100382,0.8655875449167456,0.8722394362108936,0.8540859490458672,0.8301880304653673,0.7931031249412142,0.7278385513763621,0.6507812138247764,0.5816145542987208,0.5204903219488051,0.495565300423519,0.5537249573211231,0.63148072609243,0.7177259806279825,0.8013494187996497,0.8493132093802185,0.8674709561119416,0.8548694216924497,0.8395084367973262,0.8430722797659644,0.8420400260702681,0.8454545102121358,0.8551659724783796,0.8600126296439674,0.8559038791907683,0.8791693529021618,0.8784849589329249,0.873578198407341,0.879147272248161,0.8555969956476766,0.8277705032607687,0.8498873632668813,0.8996280210014778,0.9313805595699769,0.9276314311355116,0.8457832445151143,0.7455259133870249,0.632041578197446,0.5200125349210936,0.4083802038614821,0.3142527290143451,0.20912399255046843,0.09625136755947761,0.008670198889245029,0.03933874179796115,0.14840823831586025,0.2579842034432023,0.37679041751117914,0.48575163086166384,0.594731768455683,0.7020408183803459,0.7937819974108096,0.8358173151660728,0.8406929842341833,0.8329247372459427,0.8023725524558118,0.7503711384557055,0.6787294751274424,0.6137267716042505,0.5384703749894646,0.47472591467518876,0.4680418118306062,0.5361814361936226,0.6224802139793346,0.7072645659487167,0.7826084930277024,0.8232844308254821,0.830597863265401,0.8371648914011982,0.8301940557315417,0.8368146192435968,0.8500058892188314,0.8402325225084275,0.8296615787591297,0.8508998472644564,0.8575791322645077,0.8489281930092134,0.8691561281263862,0.8688211822480132,0.8782474622078973,0.8711658115662071,0.8381709036266796,0.8152073243534361,0.8304157685291389,0.886908972774767,0.9199863074723615,0.9149595468960317,0.8606375822851975,0.7644337874442084,0.6523965520792347,0.5427724646193872,0.42420249372248,0.31430626265244044,0.1944851432128054,0.07431146906126074,0.0,0.04831081967939266,0.15445527251000302,0.2719050741903377,0.38298035758967686,0.4985956458707612,0.6076088107414432,0.71348085117017,0.8054959967972546,0.8303561769328023,0.8128275050339999,0.8255285057076804,0.793672448481352,0.7436044212261912,0.6710145558284806,0.5955427717578652,0.5287361600758835,0.47896721468646364,0.48934320603437875,0.5679189606718471,0.6554997675751792,0.7355695945386289,0.803460109954933,0.84918172235587,0.8530360004642175,0.8429144733005596,0.8429988639577521,0.8515731325245701,0.8399789518259548,No
0.8773576719460388,0.9165159710433355,0.9356648148507802,0.934552493690965,0.9393658128743168,0.9164696383496689,0.8559279578792323,0.7877688071259978,0.7024884254653299,0.5989810479855309,0.4980157614689229,0.42534010944881384,0.47278990364832496,0.5761747026620718,0.6771139259601657,0.758637823541152,0.8393805593057841,0.9140822538579525,0.9439590590845195,0.8928283010071438,0.8431356784572688,0.782183127190851,0.7723058498859965,0.819917383719996,0.8754930464938884,0.8791372904447288,0.8581418070265103,0.8533068542098037,0.8565865080808224,0.8459560116714986,0.8431712282267223,0.8313761075315362,0.8158295440718102,0.8194859413393956,0.8334067251056254,0.8313217400033981,0.8355269103510481,0.8254254383494892,0.7831710132567249,0.7283215793947071,0.6651382079670993,0.6307319851433735,0.6780626423340075,0.7338970992202323,0.7900651137134078,0.8283194204257542,0.8549917715048077,0.8697337045363103,0.8533612675789559,0.8277182222147181,0.7693452221675607,0.6939227654238773,0.6016878534047527,0.5042894544081811,0.4063333288887716,0.3247652419005722,0.3566899610993006,0.4554689153540874,0.5603078538190194,0.6606074300354554,0.7571611513545395,0.8571919530476078,0.9265326320587692,0.906240949184455,0.8617676844145787,0.7954501535140892,0.7637935083909824,0.8046566008615592,0.8630240218239948,0.8902599062063064,0.8919116757275449,0.8901439554319648,0.8693519293117324,0.842670283181377,0.825311885121951,0.8108520448084571,0.7806437276281555,0.7516462387236729,0.7225452609012666,0.7083736611680878,0.6818386888580745,0.6491992085130005,0.6186058022483629,0.6119827097655604,0.6615033726485868,0.7302771757093911,0.796019193086078,0.8599735566080078,0.9109980663893156,0.9623414155338441,1.0,0.9789527802292892,0.9752944541596089,0.95245056433706,0.899432133427478,0.8354182513718249,0.7435417653630911,0.6473350242574041,0.5481080615283311,0.45331369864028104,0.38542312942233536,0.4442452189027699,0.5472700315013985,0.6507964580128056,0.7457804687623946,0.8467882708560137,0.9366786169593184,0.9661461680936019,0.9158957996749173,0.8743473418632899,0.8183459670577453,0.8299619308473205,0.8777833059918971,0.8865948303369939,0.876041354037985,0.8735306169759562,0.8810375840501177,0.8808041743758457,0.8622805897033299,0.8396466172391892,0.8128546847272622,0.8194712022874384,0.8303140566875196,0.8363018876416604,0.8207559451883015,0.8203586234216051,0.8285660209394488,0.8403705786908966,0.8009283322610856,0.747506885479202,0.7296635900908468,0.786809211893253,0.8430786669438599,0.8485669732002705,0.7668650052607537,0.6639341407000008,0.573690597896706,0.49920886761243155,0.4278478125057137,0.33822143183352305,0.24363944718590025,0.149064404713511,0.12517618624731108,0.19803116458623538,0.29264467446963205,0.38848093866364364,0.4836923632955148,0.5852993905402604,0.6892900890107914,0.7831741365005018,0.8542989449570522,0.9038900726556292,0.9214875741679509,0.9413623914687381,0.9134696590825682,0.865803359912833,0.8145356221893918,0.7433970715017706,0.6761146892936689,0.6125669978337762,0.5648441975481098,0.567649929286226,0.5925536491142753,0.6237136164269046,0.6564827943702962,0.667788261602495,0.6975689839828592,0.7280270117226579,0.757376960467282,0.7761094015961638,0.7871221434978612,0.8033826326621614,0.8281879405871408,0.8386605986211504,0.8456163078690806,0.8467057528908466,0.8168439360787754,0.75985655413802,0.705865470982022,0.6907829670444907,0.7479694411093027,0.8143041588567943,0.8303162982491816,0.7529432337948245,0.6485752373285685,0.543626550487935,0.4386850228583985,0.33586696502624847,0.24088657660785606,0.13905782887815188,0.046807269934326934,0.0,0.05992540416303016,0.13967582479938345,0.2294532174837558,0.32941052582615393,0.42469312418684835,0.5237182102275311,0.61977858437624,0.7118127155078575,0.7791307675973655,0.8129373689046742,0.8182245631975182,0.8003743382954029,0.7644698374215428,0.7088318667422508,0.6501665401961301,0.5931952039918729,0.577512339911981,0.622628292338526,0.6863848126555245,0.7474053424710312,0.7826083807703417,0.7864816032377551,0.7845967759736734,0.7859459347501581,0.7688478038383959,0.7730096351653901,0.7944360489666193,0.7975295742461959,0.8041512746143411,0.8098672751969094,0.8073567183217865,0.8190298184599194,0.8338048896385453,0.7949163041949876,0.7432451065507526,0.6947844134825294,0.7066082776318234,0.7690188687403028,0.826746268646088,0.8290984036736355,0.7398662325995566,0.6390215531177401,0.5429659482377813,0.43881359912779994,0.34124452247340575,0.2421170656642102,0.14281626055327945,0.06331739111036638,0.08047766754130214,0.17889717136329697,0.2762084393786062,0.37492653010711985,0.4703414971768576,0.5662287716568588,0.6493629642290912,0.7319847593226485,0.8051202235267327,0.8696514290714119,0.8922836681387345,0.8899197693197567,0.8755822705857712,0.8406661861715969,0.7861803139268568,No
0.7903483768049648,0.8125560325540131,0.801028396261203,0.7820126614290701,0.7767853918957055,0.7895619428507459,0.7872234212720288,0.7883206326372454,0.8005510681034114,0.7468325699537193,0.6875800827293888,0.6143854865346245,0.5467730577664316,0.5097086401759738,0.528573974505222,0.6108663491219057,0.6418921476381874,0.6826003775172058,0.7308635563551906,0.7740673779126008,0.7799200183624988,0.8080758991223123,0.9110728323573061,0.9521007505104637,0.8492297477609823,0.7177307366560606,0.5737573869838641,0.4458325201119697,0.42861425112653384,0.562230299377569,0.6818602093368642,0.7742270395005182,0.8417043581249843,0.8411934336715481,0.8504371871385406,0.7843544972000553,0.713962937657628,0.69588769002109,0.7220134493958308,0.7782563683237109,0.788901555934876,0.7765965206479342,0.7540173462966506,0.754384493466727,0.7566735247959011,0.7776236027144692,0.8003134871271764,0.8066265776219614,0.7443663471010251,0.7037473648533172,0.6357613093215382,0.553603442487915,0.5409627729517403,0.5865282120462454,0.6490454629669902,0.7008779752903354,0.7416710947251675,0.7412918365084593,0.7768506646924389,0.826596082017848,0.9333583045772897,1.0,0.9266382899695809,0.7940321925323537,0.6550793878896362,0.5187724167611858,0.42298720112463206,0.5146246439726898,0.6487198333872097,0.7591714997572185,0.8587212432274263,0.8556625315473703,0.8557650883007084,0.8513810947180334,0.77356647062585,0.7225256452181696,0.7211813472440509,0.7447422465520557,0.7835589474293125,0.7762850727490336,0.7683681979006058,0.7559684328850755,0.757586050994254,0.7684481413190118,0.7573026521483466,0.7866350073101209,0.7877713267989948,0.7529091353984687,0.690176147577855,0.6201277304827078,0.5946945641316397,0.5696714941310308,0.5899921794530241,0.6069266471853587,0.6309068435471472,0.6823079034109161,0.7043171969514632,0.7488703840923736,0.7453637980900867,0.7690046186555985,0.857684379634641,0.9303741066028017,0.8738393791640022,0.7466228578358005,0.6149972740480929,0.4727163032200776,0.3833980337385734,0.47506547625562456,0.6109628004787981,0.7280058077849789,0.8041963344133869,0.8318969974655133,0.8493014528126657,0.809340514318885,0.744906180923778,0.7162922636696347,0.7273027137159835,0.7745695824241734,0.8203973561121551,0.8332843076899499,0.7900609259901392,0.7761680964701734,0.7969202726111431,0.7986660151977758,0.8199719509637098,0.80149373277535,0.737016081732611,0.701248987753408,0.696385408886846,0.692171296698342,0.6971820121560941,0.7008013256478356,0.7237432438404126,0.6981782415260009,0.6458922339760558,0.6169347022721081,0.5883639840949004,0.6494275837670647,0.7219813640513282,0.7536259127724403,0.7419066566154018,0.6689309507513923,0.5463585016048049,0.4111396718577853,0.27230951852708873,0.14394034663410782,0.11066034818395076,0.20285292002968136,0.33463849506628973,0.47033513113385306,0.6185491996446717,0.7327423192885636,0.701755788391786,0.675260103994705,0.6693895764173541,0.6080853238068356,0.5919869585899789,0.5591114375874144,0.514310471503086,0.4541649896892217,0.42617193751621363,0.424273758447391,0.4965897820464553,0.5457209887212113,0.6252250216603246,0.6861931216341648,0.6805395500873579,0.6627296478977236,0.6611205392194184,0.6579445726552562,0.647837486457838,0.6758065758043648,0.6868143450034041,0.6657117335634632,0.6224609728556465,0.570468772692863,0.6244811510550385,0.6822140770606469,0.7501449268002105,0.7584934184136891,0.7513299582609729,0.6414696282672301,0.5103865382672708,0.3738583168562246,0.23571416826126246,0.09432594957539386,0.0,0.05269429443482565,0.1764591654732981,0.3096216154969502,0.4470994643144115,0.5742844980237733,0.6810245322672386,0.7357225942079246,0.7017568329456543,0.6636092957605464,0.6512007650379341,0.6421932459280715,0.5899861398298558,0.5369463530349208,0.4734747436370714,0.4301899303853389,0.46603648883380133,0.5346651899796688,0.5902197725687475,0.6485179882197349,0.7196244859652254,0.7139191471019863,0.6964733518634647,0.6717978460644924,0.6737117506760191,0.6653675899467393,0.6773206101850295,0.6857159436056897,0.7033484805689807,0.6399914161221592,0.5848180785962738,0.6163486984681761,0.6411950576787349,0.7084821641897912,0.7402524366050516,0.7197724533435164,0.6418054587263873,0.5432132404705516,0.40670672966920796,0.26289736760986093,0.13002570509524647,0.009876681978475244,0.023072735949203338,0.15021465255924804,0.2967607369506524,0.42934808344466013,0.5743589364686001,0.7035603130823369,0.722808880247114,0.6877687332336597,0.67926303570579,0.6508770627214964,0.612777367377181,0.569459843639637,0.5062674987710669,0.447476148588827,0.4247276132778426,0.457731356854187,0.5143940552311665,0.5964127059731856,0.6609433292618272,0.7056896646139164,0.702972824558735,0.6920668686210436,0.6834392652648273,0.6910921287066945,0.6883560802446596,0.6973611254135834,0.7145457110725859,No
0.8616604505296852,0.8859124805599499,0.8970250348434154,0.8261049716353677,0.7076771308451626,0.5893920936954351,0.5376343916940316,0.6240884109423219,0.7504668476542324,0.8592439803767848,0.9265522762839811,0.8968147385091645,0.8387725424860446,0.7864721594154238,0.7882566579997903,0.8462312512082746,0.8609647573777348,0.8516532394169265,0.82977557357848,0.8366418214426492,0.859372756655675,0.8863242128050137,0.935183878767647,0.9540541154208051,0.9023609249893498,0.8246025218597546,0.7388795382020521,0.7325146397262077,0.7860448848186157,0.8430751164293322,0.8889960372315207,0.9088351019760705,0.9160699986152583,0.9276652889104837,0.9433894061070847,0.9369294136668453,0.8406683818266045,0.7162033337318161,0.5938568683403354,0.5046611360437829,0.585494033274641,0.7125656823714732,0.8368914473466047,0.9516506695014546,0.9816499697039003,0.9336659772394666,0.8724067741260657,0.83502049080198,0.8678445824337628,0.9108397059730717,0.9068637426346524,0.9019217683755012,0.9154538007621604,0.9265075404547578,0.9350483403739718,0.9155555377882845,0.8692735761758028,0.798715699579525,0.7166665337806419,0.7101730968944904,0.7766537034124199,0.8288874712552765,0.8724701835011612,0.9045996814838686,0.9269237763547431,0.9519995048963343,0.9656264429282757,0.9571150815326326,0.8636907866956549,0.7419547443051364,0.6197376803255548,0.5026704150564085,0.5423774418469463,0.6744772681539519,0.7983054619845422,0.9168816906254551,0.993954040655006,0.9875372151800264,0.9283271859686861,0.8755591289817821,0.8668439836522928,0.9224848583711571,0.9526448804578949,0.94372667176824,0.940429917543594,0.9499241851984412,0.9623674979804613,0.9576087491832674,0.9334323495550807,0.8794328437192092,0.8055168404741164,0.747970382665446,0.7658391657520851,0.808150300528081,0.8640694061182157,0.9072195013909332,0.9329755346013053,0.9394806217558447,0.9453297812653956,0.9592565203150731,0.9248530823100007,0.8131226705121501,0.6845938698536509,0.5612767451354075,0.4931478177590032,0.5909748052813693,0.712266771876406,0.8398886297370098,0.9449107526952374,1.0,0.9527219159459719,0.8983636633141718,0.8392064454351869,0.8349435115722947,0.8909666767116513,0.8976898403497153,0.87794245936559,0.8394218175433408,0.8422586362041029,0.8150850055668948,0.7616118286696856,0.7713157131641086,0.8294939446707135,0.8804284286575963,0.8746689101367031,0.766691845894595,0.637240465010835,0.5156751944778892,0.38479377896013656,0.26306891386694176,0.13539710003878147,0.05538320379117989,0.11420005383348952,0.23465963336583773,0.36278895431513103,0.4979726788818093,0.6331401175817266,0.7608034385572635,0.8670544254016717,0.8862616707046995,0.8931130788903108,0.8791104805513976,0.8522946947018037,0.8110125989184032,0.7506626620178909,0.6987212851969327,0.6588235423218665,0.7023913472882088,0.7767808744472107,0.8526410512593867,0.8882973690824141,0.9070521681174921,0.898294742728345,0.8920458441779036,0.8828978893813759,0.8836559622408258,0.8762382143792515,0.8211573104805283,0.7834803448901817,0.8064644151069174,0.8649080893043553,0.922372522280142,0.8941778175034361,0.7791441322034167,0.6576824346412313,0.5248921929470516,0.4050921137440575,0.2998652100206205,0.17815614871795393,0.06779386944615373,0.05750194143965004,0.1672009551177962,0.2928439132535603,0.4027181369253281,0.5116995296488485,0.6126962643379694,0.7327741351784551,0.8511868075244262,0.8969907580696104,0.8828573169155325,0.8625377037951671,0.8455345269703578,0.8135223853910083,0.7622674055314409,0.7057424809282753,0.6435939214461683,0.6406772448712656,0.7066483223681486,0.7820021041435932,0.8430703933941373,0.8630836027217259,0.863229101339376,0.8505022619860916,0.8355196454462086,0.8473670961371376,0.837920439231608,0.7920105332364162,0.7799502658896631,0.8239549929025678,0.8820464916879311,0.8461174872454507,0.7278440882236796,0.606560974834534,0.47681152363298684,0.3551825633308323,0.22179145032320546,0.09144711969692532,0.03842373667419796,0.12377289143647108,0.25282751418459304,0.3759828011910211,0.5054526764662506,0.6309449937366147,0.7561838083970334,0.8546291221524522,0.8719395913568229,0.8619491309745944,0.8475510897417884,0.8295960843330539,0.7823718399124147,0.7244920658288647,0.6729999037543268,0.6602761581680494,0.7226161612322759,0.8036012470763692,0.8746553911261183,0.8674811697727427,0.830928450646931,0.8056552614492447,0.7818603482864561,0.7730581286770959,0.7769335753364244,0.8015363363537622,0.7676160801076253,0.7110893459861698,0.7199463543883717,0.7739413986277413,0.8272680698983343,0.814085160225448,0.7008997979769851,0.5774059224570061,0.4504409604852553,0.32554985841415496,0.19990768313362173,0.0765624488607668,0.0,0.0628987393661884,0.19304476595901932,0.32830765764848113,0.4619388398745272,0.5834978908125512,0.7077455198877245,0.8113099733735138,0.8214557338150756,0.8129026238313175,No
0.8842545832517925,0.7606535638467022,0.6240964616128801,0.5191838144011003,0.5929016443035002,0.7116642376642326,0.8175681525225249,0.8862723164771267,0.891789016231646,0.8601215953482559,0.7868191287385442,0.7351329040803671,0.756127670599259,0.8315712565851716,0.8590498828450568,0.8496521213776429,0.8427535936294026,0.8372765908073361,0.8388114878165198,0.8096396395261505,0.7647303920279205,0.7150795194602098,0.6858191347381828,0.6365701212507204,0.5595019866218283,0.48384172474977927,0.5029133783495929,0.5970651530199196,0.6778510751735141,0.7491592857318072,0.7964701154234772,0.8238295425841771,0.8331293723238562,0.8605740426333295,0.9289506579305424,0.959430128915185,0.8615580606528446,0.7309066001558842,0.5984116735096996,0.578750009423016,0.6958259252238932,0.8199572095122236,0.8880253270645562,0.8888310402940269,0.8617667331011281,0.7974111679789773,0.7290372557189548,0.7383207435004624,0.8052467917588255,0.8639427362264782,0.879884545640186,0.8670189699273694,0.8727490105435267,0.8815099651728442,0.8933849861604712,0.9125107900876412,0.9260673800646511,0.8877451158422751,0.81878489890101,0.7329309344104495,0.7084698365133368,0.7536386471313095,0.7906237627503114,0.828454930009578,0.8475995362407001,0.870137480336679,0.9023651773621659,0.9763757595061993,0.9672329032574591,0.8519588391143635,0.7029545826687458,0.583226110324373,0.6452620241678795,0.7724208161088448,0.8845201151936406,0.9608953502261177,1.0,0.9740904909960895,0.8900478871608732,0.8038807632555733,0.7828194804574267,0.8429154570195752,0.8668333195243667,0.8435185327892447,0.8082184853868175,0.7818378381334798,0.7774097972138185,0.7805561345641192,0.784177086851841,0.8037364196838643,0.7650781389629806,0.7177786593490203,0.6632523323054489,0.694246518412875,0.7602611653556881,0.8358004237237697,0.896659867378693,0.9445512628543979,0.9313920824189377,0.8823820650491299,0.9006869856625732,0.9753903454899393,0.9380002063778528,0.8211504896860053,0.6902645462068189,0.600935815733505,0.6944401425673439,0.8158274629582238,0.9086919244617397,0.9497202180338604,0.9545947661072671,0.8866088764871249,0.8182924485835987,0.760757142866773,0.7946402104465018,0.870005943979034,0.9074564472568869,0.9118189635485074,0.8930522926320328,0.8357171529253034,0.8279658116607744,0.8191065351269744,0.7839103475877809,0.7136398046708501,0.6741636274611809,0.7099479862289662,0.7831357124536722,0.8416823613610576,0.8474453881653115,0.7975231050155891,0.6716231728015805,0.5280259229221573,0.39259970086273066,0.25456945573458745,0.12247095704990629,0.09047437673776049,0.20398965842050654,0.3406020698792185,0.48155330969779,0.6198842345284485,0.751843781050519,0.804370227902981,0.7847812815852535,0.8146189200459624,0.8492111056050624,0.8191234904432183,0.7597005320659411,0.6818866907211256,0.6127831071600474,0.5538814365115337,0.5660344981165104,0.631649292488011,0.6864415692294656,0.6979443077665826,0.6952046144841799,0.714392817552437,0.6936156958948074,0.6970156305134916,0.716106794716814,0.747569285980048,0.7850028826136293,0.7420737448010541,0.6945338159078047,0.7225794599861635,0.7971447251965311,0.8876476081616675,0.9073604842938701,0.8529391708788254,0.7446558596160506,0.6330032178168472,0.5340103530838709,0.43407654134245854,0.31659416074516145,0.17669009860254592,0.04905171266769193,0.03766636483598118,0.1641856106402786,0.3046995210787595,0.4528707912209464,0.5887423513765269,0.7282971876246309,0.8346063926332863,0.807034798506459,0.7825329452053831,0.7765722568823623,0.7512288879975957,0.7087997978377616,0.6699997841810608,0.6284552274117252,0.6433294964976373,0.7085435957293478,0.7921023029260086,0.8375308233922598,0.831200205342109,0.8098570924919875,0.7945017840061688,0.7813574116086306,0.7856823589782986,0.7779341388586558,0.7284941246121655,0.6618614356747998,0.6275598931546558,0.670156433760908,0.744651030222153,0.7929550234854021,0.7978945461677496,0.7151576184687936,0.5846049463884095,0.4491129839950849,0.2986743220966268,0.1532902729954717,0.024909412498870687,0.0,0.12069890166189357,0.256647903178401,0.3782516681803463,0.5014030530020488,0.6451046592980152,0.7769183489119409,0.822602818415139,0.7744916758072549,0.7445359887645044,0.7338244481700187,0.7143553260443207,0.6566634025290226,0.5778720014291476,0.4943155123237637,0.40758494322517125,0.3883866653023538,0.46008781674855426,0.5441998842960536,0.595623540333464,0.6370526913001164,0.6849809064940375,0.7320289938320226,0.7512286924592626,0.7564587073845965,0.7748981984985943,0.7744777129871321,0.7392291413239342,0.6737194512470981,0.6374101443979465,0.6713133175950836,0.7334368156132554,0.804283705108638,0.8178474512301994,0.7673755096348391,0.6563864615504276,0.5153635277669948,0.3783689796337981,0.24038408741146045,0.09762063319819791,0.01669949945784488,0.09908277452283265,0.23350095999699683,No
0.806471095075231,0.8318965791783373,0.8612093072904279,0.8614869623847654,0.8685668711497088,0.8582346668160619,0.8518365740845684,0.8526443900596079,0.7923589353111375,0.7448886926131721,0.7575822101897445,0.7386790701415289,0.7509375077566411,0.7697825810425232,0.8441853634450394,0.8847894262277296,0.9113238018095742,0.91437688170334,0.9342326102569527,0.9118676695813668,0.8936859969596873,0.8606078448974235,0.794239438546867,0.7299182153677273,0.6949983705250946,0.7276785506596197,0.7242185554437994,0.7393137074534697,0.7597618639951809,0.7517641164415232,0.761175469227592,0.7845190311682182,0.8041016029772714,0.8161257282299901,0.8368865197459159,0.8652933233018598,0.8067026364760346,0.7043616427443502,0.6082084970146187,0.5943264859317918,0.7056907785176576,0.8326207277794508,0.9009002084477777,0.9522642002182482,0.9798568213092715,0.9999999999999996,0.9964881706104154,0.9563539808537844,0.9032228271552145,0.8756543007233275,0.8757299478884728,0.9272046275371655,0.9276953570729058,0.8987570494352108,0.889763238368046,0.8620989562318901,0.849548013410995,0.8020363404203867,0.8148625794104647,0.8149797407854842,0.8097476536119532,0.8115660555826172,0.8128262592861897,0.8566531190272815,0.8290079123092515,0.8417311560107952,0.8338645027639804,0.8121485594312623,0.7620738646335385,0.7127345891084818,0.699871122489736,0.7206105728792509,0.7173573580933987,0.7371321517283547,0.762667361024771,0.7888995536885548,0.8249104885625713,0.821256238829752,0.8160645357694878,0.8163303116588758,0.8332577248886994,0.8621227440693056,0.815562688513388,0.7093410010970325,0.6278970852417518,0.7037177063606523,0.8136385052987669,0.8675866951060978,0.8826321830387394,0.9165238302149441,0.8989266348684368,0.8750182439919478,0.8424827067325338,0.8011851782874548,0.7908199508408624,0.8260095049288076,0.8643906619063135,0.8594015816179099,0.8691183366803119,0.8592323269295652,0.8683245877926544,0.8625559056217571,0.9055469728258685,0.9096371234096741,0.8973404391336604,0.8833684755312645,0.8952834350020402,0.9235920231357206,0.9410942689070017,0.9453163856517226,0.9474061655603916,0.9383983645902618,0.9202305382364142,0.8880375989875158,0.819763580512467,0.7688997995406806,0.7977655232036809,0.804620073230558,0.8217544737612887,0.8429168772354578,0.8566271722617649,0.8007545585139586,0.7567797066064528,0.7311990974786293,0.7007378110642173,0.6811001891672279,0.6714445135947655,0.7007624006676036,0.7680316663934019,0.8160032404345885,0.8405948692532816,0.8568869245778692,0.837091275296602,0.8219594802035224,0.7914643732964568,0.7842333391576637,0.7673260504883115,0.8018567553387279,0.8049881609739127,0.7885920380173492,0.764041229493126,0.7707738305330687,0.7421784338601936,0.7801049646641371,0.7690774896169184,0.7665546150305214,0.7428188934229092,0.6977376136893674,0.6754925267456371,0.7035750118236428,0.7496062310838849,0.7811989199927063,0.803403677551167,0.7949953356156407,0.7609245265388522,0.7068691824741333,0.6042473243624511,0.4845370188166034,0.3544082605970913,0.2274129885053333,0.08625934565100346,0.0,0.05918432434179888,0.18995275418207047,0.31254402265909453,0.45208589998870474,0.57462047004045,0.6987195791715943,0.7308221150665557,0.7099540950536976,0.7231143496459533,0.7170780284912728,0.71486717989074,0.6995290496885356,0.6760138250659904,0.6616930134183376,0.6373862044669187,0.6009643238298445,0.6026296659639763,0.5697299074218729,0.597116214635435,0.6496604346824202,0.697445273866601,0.7324125129246783,0.7579985413776069,0.7256722407420413,0.7039560150774933,0.7097867469779122,0.7114994529142264,0.7139920801058781,0.700930790699481,0.7196254387457723,0.711721141114857,0.7327924152905525,0.7607226984170397,0.7830107282724525,0.7763534431459562,0.7770101995174197,0.8182835630116521,0.7856229745467993,0.7710183948997291,0.7725517797271269,0.7993287178551554,0.8521856852910932,0.8954582352980665,0.8985807148680691,0.8716181728807473,0.8487581104018846,0.791767490071297,0.6997502577770836,0.5853407005212445,0.4611774844904031,0.33378680698932195,0.19166840416598685,0.07409399626803204,0.07255380577550374,0.1786309212667021,0.31291078170488307,0.4392171617042586,0.5710560382511489,0.6909300693336005,0.7336513829039641,0.7055432335306606,0.7037358668005909,0.6818441133461524,0.6904264386668832,0.6585337488005769,0.6482902227186966,0.6604305173361982,0.6440647660021166,0.6319044716746869,0.6117398108474563,0.5957849193301681,0.6250473400935772,0.6765353602827191,0.744004967424257,0.7824408763750097,0.8096511752340505,0.8213115116726777,0.805551815460571,0.7903321120800517,0.7243146724877305,0.6716009812568653,0.6583539633032918,0.6526888706554268,0.6572027949896131,0.6519141521038114,0.6566054610866616,0.7018619257233323,0.7632838651439973,0.7637827900600453,0.7684084642284854,0.7658006440598677,0.7463493677856152,0.7254493428879809,No
