0,1,2,3,4,5,6,7,8,9,10,11,12,13,14,15,16,17,18,19,20,21,22,23,24,25,26,27,28,29,30,31,32,33,34,35,36,37,38,39,40,41,42,43,44,45,46,47,48,49,50,51,52,53,54,55,56,57,58,59,60,61,62,63,64,65,66,67,68,69,70,71,72,73,74,75,76,77,78,79,80,81,82,83,84,85,86,87,88,89,90,91,92,93,94,95,96,97,98,99,100,101,102,103,104,105,106,107,108,109,110,111,112,113,114,115,116,117,118,119,120,121,122,123,124,125,126,127,128,129,130,131,132,133,134,135,136,137,138,139,140,141,142,143,144,145,146,147,148,149,150,151,152,153,154,155,156,157,158,159,160,161,162,163,164,165,166,167,168,169,170,171,172,173,174,175,176,177,178,179,180,181,182,183,184,185,186,187,188,189,190,191,192,193,194,195,196,197,198,199,200,201,202,203,204,205,206,207,208,209,210,211,212,213,214,215,216,217,218,219,220,221,222,223,224,225,226,227,228,229,230,231,232,233,234,235,236,237,238,239,240,241,242,243,244,245,246,247,248,249,250,251,252,253,254,Target
1.0,0.9465768795454981,0.9535718887333262,0.9133063474824494,0.7852595148171884,0.6317528598013791,0.7554893618684368,0.7931447778827883,0.7544623554304186,0.8781021772259816,0.8141286509829135,0.8720891703512401,0.8618398602329727,0.8483748947332339,0.7396030498468762,0.6955958673355154,0.8046433727671873,0.7244799809611906,0.7624679212000776,0.8701146475076618,0.8130021923217199,0.8676640296873357,0.8439756688066571,0.8453058362074155,0.7392021688820365,0.6526762016854044,0.7824376940428519,0.7380858921704645,0.605291424052421,0.8503042281227686,0.812567677895355,0.8232756586483618,0.8728192126740861,0.8815193222539581,0.8417979900438661,0.6826376601502004,0.6189922634884368,0.7674930225371899,0.753247095062112,0.7868605575918082,0.8535569696847412,0.8012915329188264,0.8521963775319237,0.8126401183019865,0.8042577360284517,0.6855899308904045,0.714803385808962,0.8631949668787109,0.7382561293700367,0.7407823345680069,0.9048175896647179,0.8582638809426459,0.8839948984529804,0.8532076528022481,0.826559092099107,0.6809084932876295,0.7399496178041312,0.8184855141674272,0.7618622693798525,0.8502979437824378,0.7969621535732498,0.8465416884267838,0.8591728803466756,0.8413117840141409,0.6723775420558926,0.6906703410038015,0.8470418454270527,0.7664556682001802,0.7875095183247725,0.8966789307925804,0.8395942112581429,0.8978215427851128,0.8810482170834391,0.8650504513990458,0.6959916827079873,0.7074340158029124,0.8143084476033713,0.6474370232586435,0.629109913354422,0.8373030903892951,0.8009822868405969,0.9004185994144658,0.8712520259278165,0.801098971803091,0.729871286465344,0.6133132235903651,0.7450359186879743,0.7618898393996196,0.5942626529627328,0.856076038400071,0.9532554359916641,0.9034726748289805,0.8320955036178912,0.8670059016449292,0.8412077811936967,0.6764490098394402,0.749178881865538,0.8474515865852004,0.7079669434768268,0.8109392694514237,0.8574393942020881,0.8478476886539172,0.8685409075525619,0.8124790132579109,0.743237655676015,0.761297901554483,0.6357120751464911,0.16165501764084,0.20829036348753505,0.6480428222842249,0.7184629009488184,0.5790852440876506,0.6946084776705805,0.7972988609219644,0.7334187108631371,0.7847405963279228,0.8124997783133971,0.8499710967210192,0.4627492063297547,0.003934160096443318,0.20656282772575052,0.6209287083911965,0.6451658925799664,0.5143267239942513,0.6486364150062345,0.7226272600856665,0.7951207193537613,0.8028868960198827,0.701339478419051,0.7255602635967193,0.3698138175336081,0.09563992492351048,0.46641192365523265,0.7099109059024755,0.5987250112686451,0.6391056508944253,0.791637978763466,0.8098335158538528,0.7935565331072625,0.7444458078699228,0.8058029264074076,0.43099364604733825,0.15692218525541923,0.53670491059995,0.7300673990972655,0.5692257792266373,0.5756189373780973,0.757247599019141,0.7740411097114017,0.7546033721541816,0.7060740669329371,0.7174738428008043,0.32587453246501097,0.22770917443088967,0.6126425923824756,0.7073162884058188,0.5764493786141611,0.66487112481926,0.7631205478174055,0.7936582109144963,0.7962265417426968,0.7678494103683549,0.7571611708793462,0.32150302042973733,0.16308467649615288,0.5905431437057529,0.768056981862197,0.6055963160398137,0.5761702318578745,0.7166842828259878,0.731968395622177,0.7728290800678033,0.7192740591932423,0.7413703307779982,0.6461283749067634,0.19179986332278043,0.27201987974482034,0.6557744937649526,0.6297446389651671,0.5083949023025807,0.6804557524030406,0.7824534994516998,0.8180172264639367,0.7797747749002819,0.7187482525281403,0.7540820235309336,0.5899641631435166,0.1669053917264578,0.36431779133193043,0.6890691292961746,0.6157817316931444,0.5655403497105325,0.739231910067518,0.7576046144129811,0.7799637983076679,0.7466994707810084,0.7245770680938528,0.7273431897266409,0.28684682643505033,0.1835798124876833,0.6000065436756801,0.6966675404243619,0.5809239850145591,0.6948112892843388,0.7747687618649386,0.797018693282324,0.7591740687245512,0.7404849691938087,0.7065622072654985,0.24422906372596564,0.1276997750748441,0.5665582131449565,0.6870306749044248,0.5453690744300679,0.6441702084817158,0.8196879624825986,0.8669682337891627,0.8723912822994637,0.8721529546964679,0.8013884236606512,0.35435080920016127,0.0,0.3330599845247879,0.638846894982716,0.5354697006457259,0.4899453169213617,0.693120696363875,0.7463854185917649,0.7588699349466195,0.7329951236189785,0.7105903135092468,0.2782689129147342,0.18296693310062784,0.609947283175889,0.7149279661922812,0.5570226168956456,0.6488009290977854,0.8070145117981014,0.8690173214792889,0.7796924501106104,0.6426301868286317,0.7838200953810412,0.8074460822608631,0.6606631276049,0.8468031195925874,0.8222859471907626,0.8483196897284011,0.8253283113370165,0.793980885278275,0.6303413074194695,0.5773930801210647,0.7353645093336971,0.6872902919851853,0.5859173019607744,0.905498326082157,No
0.9615406477288526,0.7690117729129824,0.5936883085313291,0.5630886523426057,0.6424180994935931,0.6175452877172787,0.4865651621661393,0.5181603085052737,0.5015644420848591,0.8002580935877242,0.8930030905285937,0.7206284511403482,0.5504489103269687,0.560903852520803,0.6408924059384868,0.6439030190600601,0.5197399113995296,0.5462498782441774,0.5663211778888457,0.6835322667492454,1.0,0.8265441848554791,0.7294204326050808,0.5734030794279459,0.6538732123904549,0.6307317173428744,0.5431989641889645,0.4286695789013799,0.47901373874803,0.49749965012727726,0.87196112570797,0.8240966781048527,0.675853859492082,0.5175436852973325,0.49927961882175476,0.6178057177565885,0.6355463012055318,0.5304816170101607,0.5291355468078489,0.5501634945755698,0.6574425228567811,0.9715161549552858,0.7800158098960162,0.6567989069599718,0.5454295118450405,0.6358416213253304,0.6190265697941295,0.5478016068808982,0.4340666135352542,0.49626734922048943,0.44810679346850746,0.7012985047086051,0.9598213050839082,0.8047718086498268,0.711879682418763,0.5754444927038116,0.6684945910576134,0.6668094482817168,0.5528315850321084,0.5286689498557475,0.5729564074803881,0.5291286959174513,0.9126050433808848,0.8635552064783836,0.7421760027802735,0.5744689169520378,0.5786510095005535,0.6246586849452256,0.5954381063600733,0.4516051552396285,0.45065335225971737,0.47791939792628746,0.6644838715150669,0.9167727106354464,0.7337047440004487,0.6067464943370218,0.5185130314717723,0.6284597794450475,0.6423148593375241,0.5560970285437974,0.5401895691317748,0.5527079375877437,0.6028586998142154,0.9846161445824695,0.8477813221473323,0.7287610941158111,0.5181165873927593,0.6008569265019559,0.6369061675320316,0.604005571583444,0.47067267784751143,0.5096228724755094,0.5173920487120878,0.705281085231241,0.9890149519666185,0.7748694426844973,0.6290853165470911,0.5130903000260996,0.6446054088199267,0.6726063540875886,0.5469675747584262,0.4867040521161532,0.2551412463499618,0.0,0.33249672057884716,0.5646647515380918,0.5485395295545215,0.3965998168606637,0.48272689591872675,0.6583702001514298,0.6849273407309839,0.2757178327252565,0.2699290791304092,0.4310544093907551,0.354964375166015,0.469077493919662,0.5070919172614508,0.4785278659551735,0.3637215227818147,0.5671023528421557,0.6932938074035455,0.6116074168082282,0.19762430941321174,0.3586008465442103,0.46958449331657226,0.43312172595681453,0.5417251807959511,0.5498675624125724,0.45188330852723846,0.43304783004090686,0.6111831398330296,0.6646241948013789,0.3936968488739705,0.16237678320858517,0.35775821456693135,0.3163731719788836,0.39772281550807786,0.5108031439477592,0.516299014898435,0.4260821659528089,0.55392594566736,0.6682922373776763,0.6530762471657265,0.22792726165874289,0.18834677939126498,0.47060243444102845,0.4275282012411572,0.4839442182615903,0.5773427504821185,0.5740223019215756,0.4626136858233285,0.5758168725357451,0.6968022396733033,0.6991133443443878,0.47542232585941635,0.14528654334827928,0.3614617005498477,0.3545375185344857,0.3802841928077285,0.49766201676424116,0.5217081289486405,0.4747540705288844,0.42591055532006905,0.6245145857341017,0.7079718540483277,0.4392688172728145,0.1260447914168754,0.39796118428537675,0.43056751685428507,0.39329172343528773,0.5325124189324737,0.5383685491047676,0.41922988999752553,0.3938920984448715,0.5738416162044304,0.6237042590874546,0.4209219087632654,0.12277787955666897,0.3479933930579442,0.3220409773859729,0.36167165549674296,0.4965625682125263,0.5358695801873066,0.4623450582523003,0.5174960471671382,0.6871142253728655,0.7557716398517247,0.45702910333531177,0.15761847802065754,0.44264589760500916,0.4414256880873122,0.4189870049197548,0.5542019453174505,0.5566630018036847,0.4710785360183163,0.4184313904792578,0.6019041245696015,0.669793829081923,0.5055635937032972,0.15026599558375198,0.3732912153819603,0.39476696842224923,0.39161752344391987,0.5298143491903979,0.5408093197019115,0.4431045099200759,0.4863681119048544,0.6681608369612508,0.7632419103752084,0.544837337099636,0.1977158501327807,0.43976298538180547,0.4413776707658821,0.41957675460120214,0.5410201993578503,0.5240661791436589,0.3942746085225317,0.46693599723423684,0.6398400478206727,0.7043110047714687,0.37405195569640437,0.2288678086244258,0.44303978148502576,0.3743188212078459,0.43881930603412656,0.5270133033785718,0.5084221055829334,0.37292431951830096,0.4320858822423794,0.6430279764387055,0.6735435760050921,0.30168973235112784,0.21957438842705246,0.7337673184890048,0.9580370548635688,0.7708108593698331,0.5832204011714106,0.511557982784522,0.6185718645194682,0.6281651576400855,0.5231797619043879,0.4993345203990702,0.5491444371051473,0.5748771537127602,0.9568350473982572,0.8556420638715507,0.7023418288789656,0.5101532274439489,0.5688396890985836,0.627384264115515,0.582465450599083,0.4962861996448078,0.5884607171676315,0.5712765718051083,0.9165680980054516,No
0.9999999999999996,0.6138142422767836,0.4948342152033689,0.4857481197883473,0.4769461708894238,0.4616187564864167,0.4639814062408383,0.4583593173267917,0.4601901342607273,0.4081204975876922,0.5031072693888792,0.9612637239951431,0.7966670766304778,0.5362825853416955,0.48231715991539037,0.4673039141495914,0.45040327826803006,0.45372528521093436,0.4635128899313714,0.4609280591928351,0.3875150096901301,0.48545874780364473,0.9775688596010679,0.8385907795509051,0.53465446210532,0.45124031695507005,0.47508170288393226,0.4711933444470433,0.44964345243496284,0.47095254900421013,0.4723319106210355,0.43993239277518237,0.4505492730497691,0.9069246712881154,0.9655903334336968,0.6021273113294128,0.5026330416689264,0.49611759090747665,0.5042888325619415,0.5138114093380235,0.553018827377882,0.5481611803612223,0.45020715737144545,0.33923779730824766,0.6404171680081752,0.9536613795666304,0.6102230310137795,0.4478305183034026,0.43154094288039424,0.44846076106289434,0.45525403175464385,0.46383758962929234,0.4904935892971629,0.4796656978166265,0.39587234797576043,0.49365426194116147,0.9807222697567464,0.8380087920590946,0.5629186832246553,0.4974460951777808,0.5016929089183728,0.4725400586910635,0.46813679365167227,0.49544345930432154,0.5022533231974804,0.4437728200641593,0.4806640899607548,0.958481041440614,0.8680591264369775,0.5563667384273359,0.4922872012256061,0.49012080945077274,0.4711953224060714,0.46984676948880244,0.4832739908992614,0.4912119598475191,0.4317996232606216,0.4722419877857522,0.9388325702631568,0.8331002415183515,0.5590877026232439,0.4837939989619442,0.45663562564036697,0.44345130042663516,0.4476586701050236,0.4687411314943688,0.47836204342594524,0.4558436325651467,0.3918212323774499,0.8047564018255069,0.9421776035653866,0.574534759778615,0.47186300801976433,0.46768374025289683,0.44623746048766666,0.4292016217678212,0.45857391276373605,0.5085898008761274,0.48961967446259536,0.39383605668926025,0.6166948948088238,0.9998409305929843,0.6967734581964442,0.5123063683849733,0.49178268643466794,0.49517428366454164,0.4910012867078075,0.48360330622664405,0.5067839520128437,0.4942194822604624,0.41683387055117693,0.3706094255333814,0.8329961926317933,0.8749120256509166,0.5685412772245595,0.484753523951869,0.5081522666665226,0.48385082729106577,0.41012500135117724,0.40432566746020315,0.3745257475859445,0.3904945599507892,0.5048592204583233,0.37283651671617735,0.04295975904040583,0.2599009726579169,0.38523111619857264,0.4102451988240001,0.3858741286399021,0.38064609027313967,0.39294697722159233,0.37081092881402666,0.3927614229557701,0.5464456999253766,0.46723495125613823,0.08246368699944773,0.224571385142037,0.3821101536190392,0.4048192930383032,0.3399596306284147,0.3259620049323386,0.33754933326010006,0.3581350949565758,0.3536936867542435,0.42117380920485603,0.5544608216723454,0.1825643925328575,0.1488714995166176,0.34687389654100453,0.3717684310782121,0.3666966253694919,0.33938386519468944,0.33103107731322545,0.34571806666755345,0.3571047181320228,0.427001464294956,0.523778690408006,0.19367870490174433,0.14439107895818593,0.3515259367379717,0.38822607507413487,0.3674766805388523,0.3685862498403134,0.38989201531484907,0.38460315796296873,0.40652637396054336,0.5408452914298487,0.3879225574462044,0.08382102452320828,0.30263257887501505,0.39284449725575143,0.39201468531914907,0.3738520632514333,0.3678132705230621,0.38862851666119713,0.3913987440983906,0.3911616200128889,0.49657931902179486,0.693383829741506,0.28578827981875543,0.07276969365591146,0.3075445876099945,0.3871414720709123,0.3794404342098239,0.35894259289610986,0.34814293819955866,0.3367262820046011,0.31069284750843584,0.3726443630417937,0.5440880228738081,0.26320877305131285,0.049377809401579764,0.26407749895285804,0.40109390917611387,0.46031149578585095,0.420710773232817,0.4079383254189035,0.40887158512530997,0.3775674291360751,0.41932091025447216,0.5714011553952236,0.3705882663547375,0.1160767572695316,0.30559567672780785,0.36167676620432676,0.37595450479994197,0.349890191292773,0.3694981007659397,0.3827162639341042,0.3491540345222006,0.4052663180668623,0.6061925382033588,0.43519033161926757,0.0,0.1701935839093256,0.34487848525933273,0.3631707602752683,0.3486806065236854,0.34326923825464384,0.35782003849804633,0.37360698691856387,0.3845597408942725,0.5076588357917071,0.5737317597672562,0.14750429379220664,0.20846308630120625,0.3481045418356197,0.3578520155277709,0.35807531445392105,0.35828270161792064,0.3659558017624578,0.38387263783061387,0.37751718484052343,0.45419857688282983,0.5702390293842705,0.24694237401546593,0.23261036096447807,0.3692163820835521,0.4024089330879015,0.3902116954653123,0.37059859449469545,0.3724714707837138,0.37569852438602114,0.35815646557337244,0.4413960354463704,0.522916523695816,0.4820571587626947,0.4880371526765326,0.47284783335279457,0.4749361471877891,0.49761245234596485,0.502575757153894,0.4666821297535475,0.46909829914590473,0.8938220490847226,No
1.0000000000000002,0.9056198889015445,0.8890370486158121,0.8474430840998559,0.7906732237283289,0.8270721696117918,0.8412321154748785,0.8884249057211244,0.8645066702993567,0.46858631240597104,0.11989036554845844,0.3186287792863445,0.7464122009899441,0.8873497736317368,0.7741682023530829,0.8341677994885102,0.852184425123788,0.7843637002511776,0.8353070184152263,0.6688060691145894,0.22916312738559874,0.060068989772247505,0.423257981142521,0.7903069015987989,0.8146605742902095,0.7995127833096762,0.8051109118192119,0.7685308807695432,0.7849217208479609,0.7040161034200336,0.2814063388587613,0.015108584704071726,0.3316580087673968,0.731914499109316,0.8089453719011965,0.7801309183575262,0.827742988772598,0.8098574082907968,0.8001061808507794,0.7610252951495289,0.3539020055084603,0.018932406192555207,0.26262310677138334,0.6835994250070867,0.8104270970460756,0.7857083313337576,0.8300805806899936,0.8348520498248935,0.8281237469424099,0.8578265833692178,0.4971440826224036,0.10596986776287087,0.24727670636931243,0.6773620004750933,0.8342496832942248,0.7158065699329375,0.7750032030170095,0.8266666223255141,0.7929654100811654,0.8380145728933979,0.6798284444793714,0.26070292808122186,0.0,0.30061005657570594,0.7188058359230296,0.8198451053262144,0.776991062066531,0.8460995837934071,0.8616252011260128,0.8396698611613937,0.8513623583531251,0.5048326804596621,0.09544749001895658,0.18590641329647073,0.6170328069170612,0.8338402432263412,0.7610972538521452,0.8009841179976087,0.8135663350022455,0.7876288825778297,0.8411198163903877,0.6681928137245439,0.22708824188390397,0.07042519964647043,0.45111017069396286,0.7949846696385199,0.788803900546039,0.7966347525338064,0.8399652839167646,0.8175671547554779,0.8654050581698747,0.7192674293718706,0.2787995347593941,0.03682958262505287,0.36970808272677713,0.7639875990277663,0.7998525548695128,0.7527310871892388,0.8214856879648795,0.8373198807716258,0.8000184102630166,0.8387462590791182,0.5144758925265422,0.07827584078899341,0.06920471784126514,0.49651558413316077,0.7795551842898729,0.7485839154073672,0.8312433671464554,0.8623908603724775,0.8295761395840917,0.8567757243903922,0.7451811209395964,0.31326296811607945,0.049148752452711886,0.36507877904382213,0.7586110150609087,0.8051179186910058,0.7753069052110104,0.8318602350742113,0.8518522014536856,0.8037495321305497,0.8354175489533127,0.5090793684032109,0.09607603934990938,0.060864962442943815,0.4654418271309646,0.7908456341102112,0.7662772101519824,0.7709437631979763,0.8283063345785722,0.8015604427870475,0.8353467970204493,0.7198936683108961,0.2996775757810686,0.016079882829461933,0.31311951171399577,0.7129793092797974,0.8055978004104583,0.7743660186923442,0.8381296845907413,0.8843117614123484,0.9015957208812302,0.867585168639027,0.8271809672194914,0.861638373258818,0.5976871943013133,0.5332989613105743,0.8638642230861069,0.8886916082076537,0.8872176680768848,0.872506748490399,0.8074015205839042,0.8592529401989444,0.8083518964589724,0.5231837000875486,0.6891446934856915,0.9206442493409988,0.8755659247290501,0.9024940827448218,0.8725090798778432,0.8232470648428025,0.8958080096969043,0.7202474196715896,0.5135205833568817,0.8147382867220252,0.9339310767962816,0.8950940481327696,0.9183959152246541,0.8889530544317394,0.8224032696868613,0.839061474066155,0.5757828410498762,0.5481066174738449,0.8762504542662983,0.8876473642026257,0.8849369904091959,0.8755598969524401,0.8155830912999897,0.8696543080760732,0.8298249586549891,0.57188717085966,0.773113621849711,0.9330991291875106,0.8837254250279025,0.8929875514036927,0.851875348198909,0.8489023953139474,0.8782926469727368,0.6228216280788461,0.6709086923839767,0.9170420767145722,0.858432182497715,0.8710361942743787,0.8572494388269805,0.8245444188987117,0.8871737770268755,0.7884285909854607,0.524802849559113,0.7574550383839957,0.9438554167797664,0.8994317016452358,0.9130047424046499,0.8926486078879532,0.8283979693304055,0.8938805102867726,0.7130288972240748,0.49793313781925774,0.7903630668556103,0.9042353327803379,0.863413465191095,0.8766102421064796,0.8201800031528184,0.7849316083909545,0.913188175449605,0.7534525289307987,0.43332810165902047,0.6417656193492338,0.9393306889456077,0.8884944164053536,0.8991265697567044,0.8831067325719608,0.8370389364551774,0.8760711194177933,0.7231669589921947,0.4052258472201973,0.5995463239637875,0.8936376743462975,0.8500978002349577,0.885383534401069,0.8816017268182958,0.8336353039629179,0.8796159160969184,0.7782052640631483,0.4270442822223848,0.45499839422731125,0.7861139903224774,0.849028874109647,0.8303573270640634,0.860505263188468,0.844717962500551,0.8870221049554119,0.8172248150104897,0.5183542209751333,0.652902502493516,0.9028663638498577,0.8495672407601831,0.9016284311680391,0.903233030832199,0.8422520240580422,0.9107624278827662,0.9192802321730971,0.5898642512293488,0.5288623642292232,0.8952107559720361,No
1.0,0.815750213235948,0.7110848272298371,0.6874651894040333,0.6050632557322588,0.5553050904214296,0.5631419108947102,0.5619451408290752,0.6537163886419259,0.9172942339343675,0.8740543362953326,0.706126872605108,0.6271481842275795,0.6062734723641867,0.5034457090788331,0.5237182239670317,0.558010870196866,0.5634886382276236,0.715879346648931,0.9584037769026352,0.856803535629842,0.6979364989898547,0.6538280758086068,0.6242519776913964,0.5409375435059149,0.5748582686080965,0.5658854492413425,0.5894588422564824,0.7386301661255983,0.9768009607075063,0.8836184397146747,0.7430986595134015,0.6816823296513435,0.6310917235540665,0.5433715458144066,0.5633772123317717,0.5430937958208104,0.5884199587613765,0.6690164040822495,0.9089583560142565,0.8999123160688196,0.7402249571347896,0.6611753503217734,0.6167410357098904,0.5381465978469588,0.5611871853885959,0.535921858598595,0.5426797321398387,0.6474855802256307,0.9079560542264988,0.8608314656622373,0.7047434685462672,0.627166701898207,0.6173787365138326,0.5240686110502084,0.5253188875497212,0.5337991361873948,0.5498732379971991,0.7256531115658356,0.9507823375112596,0.848928658431217,0.7070526180467795,0.6840140045042213,0.6351084995591627,0.5281821846201522,0.16967791512112207,0.0,0.4060563554490497,0.6980984228800531,0.8362112912016872,0.6339996142415321,0.45100581702969045,0.4427586596115263,0.4253256687111948,0.41279279147340286,0.47647373822060635,0.42027685939211157,0.3949872444922553,0.640647515065103,0.8195754829232582,0.7129100928962036,0.46379073608699883,0.4428613686469238,0.4438967927506674,0.47135517812532024,0.42063042041210963,0.5086807841703509,0.4071075354156086,0.47943592698382753,0.7165318727675363,0.841952974336468,0.6388507597573283,0.5125222043397093,0.4587629836485916,0.46591787325256195,0.4350322733916472,0.4888349390607267,0.502424856815773,0.3985488660450276,0.6486639828595773,0.8407498238807007,0.8101347756362265,0.5432989265876254,0.48406235657578556,0.4660088634981263,0.46237889900873475,0.44737265859712405,0.52462466506022,0.34636639527259483,0.4787184253275747,0.7353888867846932,0.858273252609449,0.6246926072534813,0.4719083936199757,0.46316246909442427,0.4313065425549576,0.4062092083278066,0.5004788173965422,0.3744272970121876,0.427170118570384,0.6893223895921161,0.8335285833273263,0.6329955526662734,0.466324786978801,0.47499817869758765,0.4579120451768586,0.4468572440171674,0.5483624543496526,0.42681673900535877,0.4798371950021134,0.7366716627583831,0.8924152630759075,0.6901516692998246,0.49867461089145637,0.4838306397686156,0.47060038343167054,0.4408624196001458,0.5311871609984511,0.47055479287216384,0.4250857448640568,0.6809353614907079,0.8588805380679094,0.6994234022100141,0.46546411086687867,0.4597200056635775,0.4260930721241234,0.3611964459360588,0.4471404210365395,0.37420943721155897,0.30692025680011215,0.5870842142009316,0.7846046026761915,0.7069951876416649,0.47313303688256747,0.46714373114948016,0.4467621443362151,0.4210996813740824,0.5046698356345378,0.46045314627659906,0.4166483455379586,0.641051170401413,0.819725677489596,0.7175824673257609,0.4873197471460049,0.49046830652902695,0.48047899868912136,0.4812330565239087,0.44906056428622065,0.5374854233538273,0.4107785558996455,0.5680535913256759,0.7802981386059598,0.8126295811631632,0.5492019689707348,0.4852024631712055,0.4626642659981881,0.4492341924595391,0.4469347109284003,0.4925070384018819,0.3223142844997615,0.5117239176202122,0.7324811386462877,0.771113500964101,0.5072487579409293,0.469263232439352,0.49915135947481915,0.47158119818163247,0.4907379463424215,0.5560070171994074,0.4302988220201387,0.6267664174639234,0.8098665434580363,0.7949503651710881,0.5268784136617719,0.5256568901631788,0.6253779191868598,0.8894761038338999,0.9142190132498671,0.7753875356467903,0.7200455148427878,0.693784624006593,0.5819579435234568,0.5704522055994237,0.5894351869080339,0.5580911246033771,0.7472169374757183,0.9148238288264308,0.7632305245641504,0.6410532271002878,0.6354775602284337,0.5766616396425341,0.5294455544380461,0.5556250167799868,0.5696687818486783,0.6172282801849578,0.8863656068495649,0.9230124961723241,0.7736470221120872,0.7071207982173053,0.6594825022411466,0.5580240403841024,0.5910006877367842,0.5704521074182134,0.584639175982478,0.6062022159015181,0.8747226719118602,0.9116522232165005,0.7503966662175734,0.6741332678519107,0.6452713647580715,0.5623791670461338,0.5417793638467634,0.5449517815512377,0.5628592335927864,0.6752492609919414,0.9129773850314544,0.8157698485108593,0.6497614886157836,0.5729043544217629,0.577857863607667,0.4717970546990222,0.5086688141879456,0.5397019477461238,0.5601588978536354,0.7389126388089386,0.9592183501817426,0.8379910209773724,0.7204244385976586,0.6969804825342654,0.6477663234906825,0.5575834311749581,0.5663362502694045,0.5781810346185301,0.6237511029813065,0.8885354797180569,No
1.0,0.8172078452949949,0.5545041615227257,0.5823634144571967,0.8584559370302283,0.9733234498780847,0.9206127885545747,0.8951150948523408,0.8666901369829705,0.7933854772220508,0.7965426060288165,0.8187952060879349,0.6285478070600146,0.553738661634142,0.7902543764327608,0.8956841344117625,0.8793832634020555,0.8770529704384504,0.8645076944820105,0.8102022189641864,0.7721094893138118,0.8394916474455218,0.709379626185525,0.5020928127825586,0.6378985685340035,0.8721475364423708,0.892869293564704,0.8747186627252079,0.8629299707645262,0.8535428905590827,0.776077129496705,0.7740994153912775,0.7733640155540911,0.5643749771578785,0.44070119102671074,0.672575678251794,0.8481305271021604,0.8125867480404756,0.8135974564048511,0.8865173420713026,0.888127302294325,0.7969601785465423,0.8487371480568211,0.8388163412957466,0.6174573964896848,0.5239248428875511,0.7625456068682666,0.8875917790284453,0.8635968617650005,0.8799913217835731,0.8702331729105193,0.8371898582855855,0.8016558972053638,0.8501528597685251,0.7148854394078135,0.444544200906779,0.4012769265191029,0.6731427185371421,0.8792427012055732,0.8878636206158184,0.8985372260193878,0.8707519303701237,0.8545500249462041,0.8391956765622759,0.8624758463454132,0.8552271970468914,0.8376622512132808,0.6418912064040352,0.34091432664745275,0.13360721857866886,0.27609948389071565,0.5733116312315878,0.7922660116487463,0.7811312314622767,0.777463982589907,0.8400060811165129,0.8503433894082781,0.8374894827703585,0.8377087203961047,0.7627515048467621,0.48526016745624795,0.2060702302984881,0.17633219617414608,0.4403438931677322,0.7205063339960931,0.8401803102451337,0.7594161643644668,0.8120042444728834,0.8665851863624556,0.8042466193090376,0.769471561612544,0.8030740978675133,0.6794138549457152,0.38410375605229913,0.10925267840347547,0.14803145673176948,0.43790878086360113,0.70006371427829,0.7560486632885091,0.7089838917392597,0.8056371370916595,0.83181442991089,0.8431707801294657,0.8537803411674365,0.7912805051425706,0.516733159231205,0.2236633092394587,0.18147123307306473,0.453026249749565,0.7267416298153602,0.7981129597400478,0.7233285524982698,0.7980997095263176,0.8382529514929495,0.8509976073082728,0.8444896673040008,0.8355705486028371,0.61640252794203,0.3111047848317117,0.11912382646820646,0.3004087624576968,0.597439603949343,0.7893208953325646,0.7474000690988938,0.7593082821698554,0.8366506791458868,0.8635494498279468,0.8819391028241472,0.9201733546803412,0.7610038223715179,0.467693288845559,0.2374025299909414,0.328986062009539,0.5958766834772571,0.86525642963704,0.9649914746105099,0.800395951474113,0.6410129717664574,0.6727898221938857,0.7221794946601545,0.7520979614541212,0.7810532590665262,0.6547269071208384,0.3580039485890338,0.09073241669775728,0.1526337256626118,0.4465844850818192,0.7084217002581772,0.7533172427884429,0.7174412666268257,0.8199688977349662,0.854653369176088,0.8578588996037124,0.8584444249567746,0.7609887710837031,0.4730659421178128,0.1930365083820088,0.20938510788916914,0.49390754390509445,0.7518681673632381,0.7882897070345634,0.7443887693913203,0.8288492022189649,0.8377345908842873,0.8447318065067018,0.8468490708143794,0.8260039895559612,0.5787096783326848,0.2770865305395584,0.16615826212884693,0.4103678883044471,0.7000690247700239,0.833203292703776,0.7717359470692575,0.8191500991783576,0.8312199956672315,0.8006550152264482,0.7682824165989448,0.7245276821255264,0.48850173526840995,0.21694312288354212,0.0,0.09834643935051834,0.38848192009965393,0.6487651368170952,0.7829255008694238,0.779835307262245,0.8612794367264718,0.8359189029969618,0.8113188390355872,0.7891183922368543,0.7061918319328808,0.44791572966736787,0.16023257957598924,0.07148812443590147,0.3262482419805213,0.6229085987214351,0.8589406538052708,0.948302254417702,0.9715622061363507,0.9005298485896402,0.6664190552646296,0.41979374220695936,0.5060258557988304,0.756072643049126,0.8203433167554732,0.8391235907421724,0.8523768255885262,0.9013737935374826,0.8411669541188826,0.8194095402157859,0.7564430802068209,0.5574313442616401,0.31164581027008836,0.39011954983867997,0.6709090726405083,0.7997447520614409,0.8102005334729474,0.8387795628932204,0.8692482272594262,0.8311722813295184,0.8297881785801695,0.8633553374741259,0.6870312176028588,0.49003624425009323,0.6591708098083064,0.8905913760182542,0.8906506402730601,0.8726431179472298,0.86847220019725,0.8660993217501991,0.7943647731976018,0.8040718801479805,0.8270382603793609,0.6259264143215322,0.397748681311404,0.5313797340958386,0.8099923980115094,0.9011762387894582,0.8878016087499543,0.8873981009958871,0.8657583536021902,0.7762615422613213,0.7732865947517753,0.7823413580247165,0.5739254766945026,0.4170118870697826,0.6284546293851607,0.829195830126561,0.803324701016422,0.772090480774485,0.7255937047609888,0.6841413018785298,0.7471674642098289,0.9501227781292507,No
0.9689676016987281,0.6851490718810802,0.7781351410623072,0.9848360271424215,0.9999999999999998,0.9746638754172599,0.9429782204936543,0.8795745891211257,0.9285355862869664,0.9429228287219507,0.8867461647930444,0.5460237305362103,0.14473736056198927,0.3039119141574502,0.7534388833369909,0.9400044019838838,0.8428422620883762,0.89089979345331,0.9104228574723103,0.9165298281060352,0.7015199348405059,0.2720964181089942,0.22175068866033576,0.6549247966640446,0.9043615780544936,0.8411678753126124,0.8797817553537455,0.8797715345014112,0.8415865090381216,0.6895841889942453,0.24306645729386434,0.0,0.3577250876722755,0.758461399872443,0.820528719471679,0.7899410099928397,0.8733693958832782,0.875905820069738,0.8315858685233708,0.45820953169633416,0.11840738980792165,0.3835646229515106,0.8061154168481972,0.8854706854666146,0.804388599825393,0.8657405192597845,0.852376611703461,0.7657556478620788,0.40658317730561433,0.03809479888807976,0.26060706513821263,0.6987529600888631,0.8403627906631888,0.7900625508937089,0.8906858606955848,0.9264078129127851,0.891769546113337,0.5765016577579365,0.1353770167555346,0.1789008026764085,0.6178969709035764,0.885346859606096,0.8375321359786405,0.8652022545741727,0.9327754373038608,0.9238170339869141,0.7858688698063849,0.3538310095633732,0.10393267937062922,0.45641822238363217,0.8374832377400876,0.8634097996063466,0.84165209782128,0.9141002004000043,0.8866821987478375,0.7654645180376536,0.3549249199028235,0.0644534442826008,0.3664639604072717,0.7695074970445397,0.8652560071006479,0.8420478002046192,0.9092815786008697,0.9083840470895133,0.8700609188351642,0.5117672082077656,0.09939466043710676,0.23775530116556376,0.6908522139452604,0.9018184522358303,0.8375476742311851,0.9022488737827146,0.9240831911506977,0.8889366516982131,0.636461618687105,0.19701830264989795,0.18689931733407383,0.6176420982926945,0.8769081315206793,0.836508637146127,0.8673359957107871,0.9118129696239883,0.8867900941148623,0.7262785258000553,0.2905279001156853,0.10131199545295555,0.4889577934331599,0.8432966518158549,0.8517069671169082,0.8767490338174866,0.9391946911942062,0.9183474216468357,0.7752816073350268,0.33747277446960666,0.012610073786470277,0.29980909768610453,0.73723703632363,0.8832061209431272,0.8404411815362909,0.9226896076731042,0.926849117070361,0.868957095426137,0.5168967090872769,0.12381541708949917,0.2961521986488791,0.7299032595443589,0.8712633726291477,0.8224847735928211,0.8945490384910111,0.8815448371097536,0.8555644296775473,0.5735907286807425,0.1355324078062201,0.1451148918999643,0.5919320190520192,0.852847638035634,0.7987794447028702,0.8664558253169885,0.9188392663496765,0.9054587040072695,0.6489656333220337,0.18382475730651038,0.04567152694270393,0.4598218209461711,0.8394964232093842,0.8778309327645422,0.8664230208282644,0.9073848756971634,0.9591789675426707,0.9079956629568449,0.588272901715019,0.6110636998705714,0.9322442772389621,0.9796746603348383,0.9732782461533944,0.8808446920694799,0.9021241482840512,0.8693338555598193,0.5459479672326368,0.5870951220010658,0.8963481429186346,0.9362026996402226,0.9612225003340489,0.9009459452535344,0.9269602088233191,0.8951849524548512,0.7032581123081252,0.8941397726568179,0.9827401632519142,0.9921833388529573,0.9315743049802447,0.9309814998034234,0.9003887042346663,0.5886750774014142,0.6073301508739024,0.9286689019709702,0.9854390820534087,0.9891784790762908,0.9093068705674094,0.9408227709336774,0.8629495160206291,0.6415887292016282,0.8602067849838593,0.9573393732253919,0.9784339333295937,0.9239668085550805,0.9115794640969248,0.9380366455843687,0.7322004081017137,0.8234668012137383,0.9674360337638979,0.9855990843221558,0.9500593525225474,0.9138555959530705,0.9659697903531062,0.7360607203771141,0.5613524547574158,0.8730066760926316,0.9736702160259749,0.9658801169162914,0.9205064149132187,0.9122385013993719,0.9085768129446288,0.646214341675676,0.6421262232848395,0.9071392361540396,0.9628912092049651,0.9617564010041255,0.8921173284406356,0.9589643787681614,0.8599537279006129,0.7171172020079735,0.9441065633830308,0.9913248639341863,0.9838794784872185,0.8953854709872455,0.9260278733527374,0.9241531899924877,0.6150744005140818,0.5908882749625217,0.9197101710129758,0.9847839108565719,0.973039190590691,0.8818814312148062,0.8876216901576648,0.8638065179581724,0.5798841767378851,0.6406872829084487,0.8761967063742946,0.9149129996412582,0.913418620620065,0.8787676061366454,0.9716011773850133,0.8325992951664529,0.5353283694811624,0.7579144206378878,0.9490349793017845,0.9360937830171208,0.9146002420039838,0.8556910105967137,0.8911989780860445,0.694749294903841,0.639171682234907,0.886889599678873,0.9107746728494901,0.9555082521301077,0.9015854900064773,0.9554390081639974,0.8824245597476394,0.6996170539868911,0.9358202295845575,0.9774714904867132,0.9749004527855225,0.9012120107762212,0.9624200326336838,No
1.0,0.9453757431664089,0.8915570218322699,0.8922094230041053,0.7950494020505647,0.8703959603527314,0.8482244203170719,0.5945866860478728,0.6912501683822996,0.8934021076799794,0.8184562015796355,0.8010484805373705,0.7553917612687919,0.630876810255443,0.5913399418682217,0.6713346384419068,0.46989145436895563,0.4196466440537405,0.7117422634589134,0.7292120565465072,0.7277635442316637,0.7410535770121542,0.6638520525164144,0.736800335032874,0.794943722840703,0.6056903208157247,0.7392939901092608,0.8931756951425118,0.603974082621449,0.2250212949136704,0.15982296514329652,0.47199683246444346,0.7291054636892877,0.7014158303680043,0.5902522327915187,0.678391715286716,0.6864220723531509,0.6426451746350677,0.6615912917557194,0.36601768242881794,0.0,0.08107648326666861,0.44686900382458195,0.6097142074594444,0.5044820147250793,0.6079513945075725,0.7198861061882169,0.7493977395402149,0.7867170011894022,0.7315787329570962,0.3579918133497715,0.12843570817836047,0.40828246286543846,0.7526964109361634,0.8256535829481959,0.7291722577444391,0.833929234822171,0.8376549164923757,0.8669913937638996,0.9210810938990828,0.7288336847302022,0.33167381865350887,0.20524876833323435,0.5385583232022564,0.8312211356936998,0.8060434426976202,0.7811393792155725,0.8491672763452782,0.8564177320363964,0.8290586709008185,0.837303943067198,0.5496762570174394,0.19091175122795923,0.26289831088431637,0.6268825302547005,0.8060364321342459,0.7343136976988394,0.7981164296246916,0.808825703036367,0.7591384484478001,0.7269377548003453,0.738509150396125,0.4150708122728626,0.10650878892846649,0.2816119578242082,0.6314416917131707,0.7520018315535391,0.6760184802082365,0.7722479315188737,0.8130924305281277,0.81379825498473,0.8414365814653038,0.5709408227688775,0.20660334918692902,0.28745985987649436,0.6491045129954327,0.804066518802069,0.6888235112595553,0.7627549368333806,0.8323236707267339,0.8025804504987808,0.8042871319345677,0.7427310573253889,0.371541915980121,0.15778382529169988,0.4494199969440775,0.7960258428215223,0.8345046286701252,0.6239558549526727,0.6550370451844774,0.7673190168124773,0.7975550162673064,0.8147120980301787,0.8071498485985795,0.47124310466202113,0.18080311601245347,0.3987221576379181,0.7032699946231127,0.6853724854867624,0.646659340373597,0.7690931010331776,0.7925215465140039,0.7756415599550961,0.8454114519393097,0.7190246975163186,0.3284886786487453,0.14409889077307858,0.4444232964406183,0.7560399867019232,0.7533557350382225,0.7133323324339851,0.7965739852011038,0.8122997933660225,0.7869213060660092,0.819209466409847,0.5541201271687537,0.17570096280673486,0.21174813797057268,0.5782191905047613,0.7893606437456606,0.6979488524097102,0.7203274133949631,0.8030593985466465,0.819349665685116,0.8386521069030732,0.753936202853924,0.37233649983659034,0.15733795761563274,0.44629752386535126,0.7633799046257712,0.7570013786440601,0.6951340227462346,0.7965670693777691,0.8169184117982493,0.8044493968897397,0.8136641674252731,0.5107963871178798,0.1629793702602893,0.2922328252795017,0.6599031466220642,0.8173767232754816,0.6997372583153858,0.7773166733461281,0.8822600183887184,0.9250841384128197,0.8633823929691171,0.7592495207893268,0.8650057944225922,0.768857977637234,0.5317544518842947,0.7335887338806271,0.9035071129088914,0.8635855313003609,0.8695555597155316,0.8405060670398796,0.7444079918903275,0.8351211527884816,0.8129735697877585,0.5845083915438869,0.7612680280303514,0.9382249497646586,0.8701515991720823,0.8742951196803099,0.8249451045608922,0.7349370292486919,0.818226417459091,0.792444751420045,0.553727211982669,0.7017024302375796,0.9107407691378842,0.8456552708524845,0.8634664770033618,0.852550347643033,0.7806005931283739,0.7959957085639224,0.8310042958663733,0.5906959254267057,0.5704441121610053,0.8841187036328702,0.8997031703416392,0.8312370129707456,0.8435110501391532,0.8090535420433329,0.6909037079861429,0.7655914653542946,0.7620755978358429,0.5332270621509732,0.6826452065953044,0.9274174164665401,0.8684161448866279,0.8487423102235176,0.8141542720178538,0.7099973073803754,0.7185526461118106,0.9210007887024141,0.8252671736186592,0.5923347240820183,0.7904334259421091,0.8950313860972736,0.845916031563062,0.8847459594779923,0.8511335654712469,0.7422192370078715,0.8383007505538864,0.7936297500568115,0.5443544253688706,0.6950684753140124,0.9194989569106953,0.8753473840286379,0.8642329002456466,0.8362823507083812,0.7475038481078957,0.8026706042242289,0.7041027807229059,0.449783098939907,0.6277439771873656,0.8617995337338615,0.791201834012599,0.8214300609131178,0.8678758964294273,0.831850158010778,0.8156507977435319,0.8488613473940143,0.6125988851374329,0.620767274405472,0.9195579181507187,0.9126007078825786,0.9035517173200756,0.9038133590774118,0.850627159527304,0.8461583237603265,0.9141126397124582,0.6999895340293316,0.5694935753372956,0.855978988047825,No
1.0000000000000004,0.7185926173533859,0.7019341671350077,0.7141505683490159,0.8111102360977198,0.6832702846016177,0.3641166242195655,0.5906756229436381,0.8176706715986799,0.6315655640153204,0.6058700880752368,0.8810034601450067,0.6581547726493207,0.6537204222951787,0.7573848185038456,0.7538409890163229,0.6243055747097497,0.3687409529429049,0.6187352807891635,0.8287760531369748,0.6630220641180964,0.7900665643219882,0.9076195131406215,0.6678665846671477,0.7744373528194362,0.7488428948114767,0.7010112949864933,0.47846042053250226,0.3300990591367521,0.6408759560539701,0.7124377992884883,0.37091308824700153,0.5234898795924012,0.721964246314831,0.5541580434175635,0.7004682495425958,0.7043458923135271,0.7386305406222466,0.6626416345133448,0.3495755452282032,0.5669600940216539,0.8203362817603135,0.6835269901425347,0.6358499971989335,0.9145956335833616,0.725382922437293,0.7460895460472652,0.8179670389455738,0.7716476615079855,0.5985433398895945,0.2632919694651026,0.4549805793505919,0.8004432179466376,0.765666434150956,0.5034015172998689,0.8509989743666684,0.8126962335396866,0.6713727468993196,0.7402781871824096,0.7050423700756085,0.6468245063021909,0.6109504418616614,0.6319731733706169,0.535028639036947,0.6842085444558235,0.5940005827453656,0.08252897571749873,0.3958151196219295,0.7094447762518028,0.4679246758554947,0.10200063989004082,0.3181156193746144,0.6236925948352865,0.7066073392875127,0.6795738788096357,0.5362643681968682,0.7058238936586587,0.38839311345994654,0.1369734025133078,0.600589507137395,0.6818084418273256,0.3565485802700774,0.22277100768893288,0.5755256096876349,0.6306560168539459,0.609380415027073,0.5510995419019342,0.41596291081573833,0.5734606329486773,0.1624730615862764,0.05341216917229019,0.530100926127755,0.5899689462017519,0.25750101516789137,0.1892984212857849,0.5326844373207336,0.6308742199073691,0.6751751433991662,0.5353690872880876,0.7244839360363704,0.5421429620761047,0.16844962826729448,0.5807999847304841,0.7042397225024652,0.41583736825811934,0.20620437983307216,0.5205007109484039,0.655911684887716,0.6646142894378486,0.5819806279415931,0.45810071969147037,0.6859213365871999,0.36982146697192864,0.18947692166386565,0.6393946010425413,0.6169355881202234,0.27490477230010013,0.29704527050780927,0.6673374437296569,0.6577072927044947,0.590682357649992,0.5557775193169272,0.6849499208150038,0.8038448785548362,0.301920167684111,0.36877858200897995,0.7807263138938354,0.6498782976873172,0.30994774277071,0.4711554602953325,0.7294734739575719,0.7157539053152866,0.7373382592423048,0.5575339877902139,0.681993160833819,0.5442931437592495,0.07366429360200977,0.411870685358112,0.613113465373432,0.3449568468147639,0.12797029498587342,0.4855893343120208,0.6671827361759726,0.6463229761191966,0.6080366386071989,0.5041869342893497,0.6763001085427951,0.28507474431847024,0.1367338211899356,0.5964430871607087,0.6146135237291217,0.27685575377252336,0.1622998770920323,0.5450068641138079,0.736138505930708,0.7292482136354814,0.5488668613460224,0.580651567061834,0.5646652623262174,0.06405628307353517,0.30940655953735385,0.6142404049062451,0.38733668307777114,0.03753309862089349,0.24746716553124015,0.524563554095788,0.5580297212823369,0.5740186577880277,0.44109412503197953,0.6067298788827546,0.46278171811032776,0.0,0.3498654313054965,0.565034532630925,0.30297690796223353,0.10526886803920421,0.45188235745986827,0.6261672111015013,0.6773454882192183,0.6999116051429128,0.6199643194942683,0.8232666226225676,0.4626521616794599,0.24719719208107538,0.7059428937816192,0.730356582047047,0.370041114919335,0.27025850008283614,0.6445338475783249,0.7787591945920966,0.7950534130096476,0.8634066813958774,0.873140181049322,0.6915664035945723,0.3768208001923967,0.6319825564283215,0.8936933535957103,0.7442137999399265,0.676092753127826,0.9914705173210456,0.7984522073942579,0.7983818143571928,0.8019892457715376,0.7347021313784503,0.6254647890936686,0.2923732606161278,0.43144130923405477,0.6748367853686172,0.5152131275752114,0.4000361818824367,0.7841007155767739,0.648240766302675,0.6247226473983427,0.685218380312159,0.6607531743337676,0.5654626785151025,0.22347950798436278,0.3280532976953876,0.6654498406540834,0.6634607660820855,0.4117494957354997,0.7687386189959713,0.7405525873973109,0.6758404516080359,0.8342477093693952,0.8440392598620554,0.71418676380683,0.3527602048384484,0.37672487004924005,0.7139748782026643,0.7315451661975119,0.44104387684389,0.7411693699309825,0.7695637751669957,0.6463238121756314,0.7553525786855642,0.7595639558298148,0.7737406986764772,0.5026712341740942,0.28765863765539734,0.5925879553436939,0.7540391190050708,0.5377649859055911,0.6899252998147265,0.8698180101960111,0.6876569842887421,0.8284372716283017,0.8293883703300966,0.8428407112216791,0.6522368346100524,0.44853559754643957,0.7573188606564165,0.9121550523179702,0.6665742077486536,0.8260917184963872,No
1.0,0.8660019619914032,0.8733052820046256,0.9037958627661449,0.8840405827329301,0.7805792826992826,0.8021373842781925,0.6571773665336527,0.34909346419706244,0.6024307986375628,0.8150181417305786,0.7461980611828043,0.8219864898798623,0.8510149228521882,0.8479071981760926,0.7715600516352303,0.8443658055131866,0.7705171887980935,0.44719291609786227,0.632476500212229,0.8720425105891003,0.8044864472236863,0.8329868905868993,0.8341333609909998,0.7817745969356973,0.7440091046317376,0.8162784059404578,0.5860558996410865,0.3752920128966404,0.7225266550693439,0.855407215140632,0.7773111706183307,0.843660129912021,0.8529920026967446,0.8496307616048773,0.8726599233853372,0.9278605398196671,0.6868797882898385,0.40815267858133897,0.7162655559039819,0.9461433566043222,0.8390503221622345,0.8631479285736479,0.8741574880304328,0.8281159851484627,0.749249248147418,0.8340754775204728,0.7662292124802663,0.5593768757200079,0.8427038171865875,0.8763579575913587,0.7934315084901788,0.8626821590189455,0.8703072463425956,0.8068423011335715,0.7656191655823052,0.8884069408465445,0.7923911715907646,0.5229736836509149,0.7962471134293594,0.9338059448731508,0.8467490245597715,0.8926512174512076,0.7880735539181387,0.7096781417143458,0.6590312287836331,0.7633891014430816,0.7031574429819112,0.3536732812596943,0.4141269582039797,0.8223569505288397,0.834193186264609,0.8430428241062109,0.9686294639308506,0.9500674551756352,0.832969391713462,0.8136098075087244,0.8480550380087757,0.5565308282948993,0.3169299605045355,0.6773213118716548,0.8516121919728636,0.7586471362014224,0.8459934897917063,0.8803549946233158,0.8522693671781867,0.8015186056873613,0.8943866825956226,0.8286311353414817,0.5161764871153753,0.6840476959597037,0.9813929678818116,0.8749646490204639,0.4919512561194961,0.12982934974701554,0.3199909837460908,0.743772077319957,0.8139131509218869,0.7244095523360019,0.7902015244890785,0.8088871917468645,0.731370832756709,0.6813256170783157,0.669596201837154,0.2510500426046325,0.05927243744373567,0.4585910713604928,0.7728333625858781,0.7333804685070682,0.742928602961296,0.8664998919276448,0.8827655154575456,0.7435066017959944,0.735664686205181,0.653351396235089,0.19119035482939162,0.0,0.40292853216124325,0.7035667808796937,0.6321029900942432,0.606614226598778,0.6801240033351719,0.8027894509686719,0.7875980711596577,0.7846173417984956,0.7393751738554197,0.3021401684150682,0.2143157883298754,0.6390056722122686,0.8118326898396369,0.694552036514827,0.7521038640887063,0.813064719743525,0.7850019962368586,0.7004515742396862,0.7747861570870516,0.505552257151622,0.1588707225005348,0.43728576940483554,0.7686799968316387,0.7172929063158087,0.6962210133891178,0.7804252382242063,0.7992279338428459,0.7558846049994816,0.7589630093382489,0.8099334026989791,0.42355297653912705,0.09906029326882404,0.4130570057442169,0.7981367264316472,0.8337624406779685,0.7826164244940816,0.7964216701140336,0.7804680315620649,0.7237323125762889,0.7184763507033884,0.6326617952582883,0.18019754858857895,0.06486078019765662,0.4935159938189124,0.748646417564772,0.6674167987553647,0.714541197598686,0.7808288135108237,0.7754587535977948,0.7161141327059033,0.7636084945761694,0.4886004454416897,0.10813086167771435,0.34243075766442077,0.7415027114174042,0.7589591887439746,0.7062545240561464,0.79263688244647,0.7800837018399949,0.7363456770178214,0.6623993401751074,0.6650115659976183,0.28529197610067336,0.021361439799289172,0.379567813380671,0.7046058096062988,0.6970194260400122,0.760225354573532,0.8361369400647152,0.8124574386903674,0.7644015766540968,0.8318249905188799,0.7525615740446185,0.29831926435002987,0.1873305215546761,0.6157236157831676,0.8751716289461036,0.7845940087340524,0.7710969779933499,0.8037461989868526,0.7788565352260175,0.6890266424180598,0.7670660464006209,0.5125466496251989,0.08845920613340263,0.24593855183136615,0.6623604130423986,0.7426135330440764,0.648428921633418,0.7360354505105198,0.8029767472918006,0.7677557715059389,0.7035288450270047,0.7232121039045736,0.35638754205511813,0.10258313867621727,0.4540041896570095,0.7936028019018249,0.7562475873637649,0.7172752662002275,0.807038819111991,0.7970345260566694,0.7146062623142058,0.7402901344317638,0.632498677455855,0.2106748237477618,0.29782310544620794,0.7612118938625851,0.8819988268994052,0.796003844511783,0.8484899918078694,0.8616580219492196,0.7932430146037914,0.8288360141129929,0.8774049382730276,0.5976903711313697,0.450991978660209,0.7986421048362229,0.825303479057999,0.7999684423261311,0.8621197746017581,0.8305616154434694,0.7330456964164469,0.764452745300531,0.8094649983433837,0.5045192310105193,0.40003888653523445,0.7947758029954275,0.8632559244548736,0.7895285624632025,0.8554917028295175,0.8635180447030253,0.8309173960766234,0.8842690966238389,0.9438077804804172,0.6716208237973458,0.4850049245163448,0.8546331044061835,No
0.9997098656628132,0.8343788909723933,0.8514704509331383,0.8538636514533442,0.790269672464484,0.8330542918366999,0.9330600381909613,0.7970038497419427,0.6427285827614186,0.953546280767835,0.8603023971740837,0.8047737849029684,0.8466083651557548,0.8146510645243312,0.7983931954399921,0.8848068507869287,0.8562766216683451,0.8846441513498484,0.9169585324756979,0.8385509005178,0.873292509931876,0.8613937998755143,0.8071627808935573,0.8786599127878119,0.9261891082560401,0.6818223396896657,0.8422753918000425,0.9163918216981854,0.7992796607157446,0.8366777431588694,0.8303130333078292,0.7749543044550729,0.8611721914666517,0.954981877593613,0.7137909730850565,0.8052862484247632,0.9189874600706927,0.8236819149587671,0.8922148945627839,0.8783459728675016,0.8229511610154745,0.9083826289355277,0.9392505679978642,0.6541122003595041,0.87606556152762,0.9563916968923292,0.8283913725113767,0.8938562105542398,0.8922347546184444,0.8217740117210197,0.868928919639635,0.9157316856128008,0.6137086775687743,0.5268239904859646,0.9042936523719001,0.8640491486430775,0.8383937908664465,0.8862524289731892,0.8560896054430001,0.7847054089176249,0.8550562469373766,0.9297109675392043,0.6304455946999012,0.5503593351164939,0.8991673359747714,0.8175262099607488,0.7794533895103197,0.8738264825526563,0.8792465253484085,0.8208153550332535,0.7298535306027323,0.6795448798068637,0.7136514582166549,0.27468168442046537,0.0,0.44322083944496216,0.7924939902378645,0.7454255542285537,0.7215675248733011,0.7912747547901424,0.7982760114015912,0.7363141044482822,0.7461185802815518,0.4278505928484928,0.11723329232040403,0.5008665684341644,0.8115708806364155,0.7739813181072912,0.7538279492128086,0.8264745509209082,0.7891632073753172,0.7587114898368967,0.7259890593677052,0.28674232918553466,0.3102286215202992,0.7611486709933502,0.8171606609720419,0.7285536526549712,0.7908044184925029,0.8176529163808062,0.7290649595974807,0.77766383175938,0.49232977823828383,0.013829288417792185,0.23135497585509546,0.7382848425946156,0.8178128320517377,0.7078153679076999,0.7366862185663159,0.7701622717017864,0.7137566722513662,0.7488588624426447,0.5852926331751744,0.12182086639406497,0.30737760346589305,0.758256058005347,0.8032531510957579,0.7299594299103411,0.7866592672579955,0.7945865103875382,0.7557910221956758,0.7562691750044035,0.4075926936967318,0.29302615869806914,0.7038851030236999,0.7683031527163511,0.6959122772098265,0.7509808072280952,0.761540547446732,0.7004003860934507,0.7498143604322345,0.4617949313873475,0.16513708947350203,0.5623558754427238,0.801874067136771,0.7304597224117209,0.7149625019541057,0.7783005062859454,0.7357302988770251,0.7801355604540801,0.7133104861986603,0.21683904430273238,0.18811102807531865,0.6911374514289039,0.8683395393783608,0.7767604775311763,0.7927460342203227,0.81142696028214,0.7740302478989078,0.8065225446056523,0.626662264133826,0.19961542256310194,0.44364930218240284,0.8320219406355522,0.8349784176859076,0.7590415611394774,0.8052381491274936,0.7998955504826069,0.7474500787855352,0.7696416269489101,0.43690050328408114,0.3138088628900242,0.7311109203802162,0.8263789897770115,0.7632932824974858,0.8105292761859584,0.8075697142681673,0.7225375534072165,0.7596136028452434,0.44775991625617007,0.08812356117217668,0.44478114021232384,0.7762076730280931,0.7237739302052386,0.7542760378013056,0.8995588381290736,0.875409655020368,0.8017049436250758,0.8010609009726641,0.36757211350445607,0.06589396284925275,0.4707583732214293,0.8177814063834776,0.7805730621854972,0.7168893597502168,0.7740401829405874,0.789497058795086,0.7409758333457428,0.7544966735518637,0.3671779112617424,0.1662064309850222,0.6172314714268059,0.8304506846382038,0.7587789570093828,0.753677690148471,0.7845205927369485,0.7516526706763886,0.7668064705793904,0.9043718634441467,0.9437419731674348,0.8290434039808443,0.8464715520946662,0.8622129813554218,0.8261589258480626,0.8448782958851133,0.9424664508720602,0.8116132466695207,0.7495098573815269,0.9550452892644636,0.8521292157208937,0.8530023403595814,0.8593631961963162,0.8155191608338574,0.8306601654619001,0.937034663892597,0.8811147452968622,0.5311216954293831,0.7831755555795556,0.9848832306103965,0.8950443324718131,0.9627330869409048,0.9780922980339986,0.845845667025336,0.8111649053261676,0.9049251441911772,0.7002950699502732,0.6231078769942728,0.925512235279442,0.8424716979393052,0.8453998129927522,0.8951171084058198,0.8509123363670485,0.8906327668945879,0.9605704181502142,0.7935072997914863,0.9282422253670033,0.9119202950130312,0.8382987178495243,0.883748641215957,0.8708412618566439,0.8541323553037956,0.9564978410761298,0.9495961528385051,0.5941646792255635,0.7460453269454059,1.0,0.8781081468586134,0.8736407521061396,0.8916330197265134,0.8544945072679488,0.8893827645579342,0.9981542826859853,0.8145992245176492,0.5062576916246395,0.8698239641086696,No
0.9924098844002994,0.7501060722305203,0.4528475914909006,0.17989922453612728,0.20471885413368573,0.46622210766538597,0.5276906692199789,0.5680553326936012,0.6573661025118364,0.69437040700795,0.6848606800265741,0.5783135398581217,0.6387089741535578,0.6768051430318353,0.5333776541002676,0.3638655065612746,0.5109531544154101,0.5564363504529329,0.733940730338338,0.8980971542962665,0.8896433410705727,0.8289020466973133,0.78427686326697,0.7222288771093303,0.8151770136175905,0.886445718003036,0.7681999775338896,0.6487064925200835,0.8591678510834589,0.8936659762347624,0.8377609786732721,0.8387384851767613,0.8178787536294133,0.7663582974478823,0.7102871822472606,0.7154965385473969,0.8274994811981579,0.8081008888946147,0.6096097051405204,0.6411245093089754,0.8526170152630096,0.8220838876196715,0.8309178184547029,0.8302758763685404,0.7870880136633295,0.7381476507524626,0.672732930124026,0.7085871756892316,0.8544711472268199,0.8917659008387081,0.7268057689010979,0.7659607638698952,0.9540142122629617,0.899005338292045,0.8858708074084248,0.8860092686287261,0.8610871643270991,0.7814109319758712,0.6700979874646055,0.7476481498667554,0.7537350230768339,0.5638931738283369,0.5057972904360063,0.7209469801832765,0.6987911057039894,0.6996796113283928,0.7440417368076145,0.7612589320132336,0.7144038213513789,0.8089939629419952,0.8563097233115952,0.74801261334883,0.6394539240494769,0.8520200755349924,0.8838915831970678,0.8490304426715894,0.8663123327713168,0.8110582725217564,0.7204824906414048,0.6425071846030083,0.7622684880564047,0.848030975057149,0.7551758514046961,0.5974167044599493,0.794186919199949,0.8564011690745171,0.8095198999864103,0.8406869991850684,0.8607844197920466,0.8591580318580266,0.7551699585779977,0.7964435063493177,0.84034970715726,0.746430208524515,0.5083672031030894,0.5728240173881199,0.7760325038467436,0.7244721347340485,0.7422143144229641,0.7826909573883295,0.7889232066203772,0.7333809907270717,0.8056935785262215,0.8707330554040046,0.7515837413396093,0.630849438515246,0.808464624981332,0.7743458979500718,0.734266234003906,0.7410593064785457,0.7405824059108578,0.6585418618170961,0.6641416874014915,0.7817425792097824,0.7950036142106734,0.655055605986053,0.7998367557496248,0.933523577542304,0.8860373441986159,0.8802576074760077,0.8102082087863068,0.7854345876380889,0.778311817698779,0.5300614184292155,0.41569279980902996,0.6379941376193249,0.693024692287265,0.5977283488849837,0.5229206420689979,0.6216658824471507,0.6376436112105778,0.6341266054160762,0.6237120004507085,0.6955344880776185,0.5490415305020518,0.3078523954037198,0.4550098954968057,0.7025879767025996,0.7490154921983662,0.6409676809704189,0.6509702874541031,0.6870958324142101,0.6728597320473647,0.6233446284171219,0.6426073440312422,0.6159432832175907,0.34324240271676687,0.3302527755743755,0.6053745741993352,0.7229472227256722,0.6639101930387928,0.643456798244843,0.7562782647431189,0.7569212069181855,0.7398928852909811,0.7170456749036215,0.73640440409448,0.7182328635016734,0.4404310265160182,0.3277073354187797,0.587181137539979,0.7274178268176007,0.6547554490844602,0.5291942726910736,0.6014285041148711,0.7075079718133072,0.7603863725132837,0.744864325425106,0.7705838598124167,0.6063187459342928,0.36241265842081327,0.5084120221560527,0.7179054649990709,0.7180627124865934,0.6109412139886584,0.6421778662827081,0.6546860216166194,0.6185734618955975,0.5758554786601567,0.6178023896941552,0.429326220352351,0.20094425656670079,0.37526949679393196,0.6148659888968805,0.6563034343222728,0.567251523511309,0.620563695894598,0.7390507361065849,0.7749966718249789,0.7847145132159393,0.7702444489018255,0.8131274124610152,0.6115872139665232,0.35505193830254245,0.4842528057267407,0.7386300708612107,0.7634975185244245,0.6372159128660829,0.5498469264661062,0.6197722261963342,0.670551950946941,0.7228974643409708,0.7257176434055933,0.7300135848565442,0.6661441475934308,0.39688105047741795,0.4325467670391855,0.6782499377424024,0.7253067038679265,0.6212822127360328,0.5868914546292533,0.6586905874775756,0.7137668910336264,0.7424410162550329,0.7386212595013694,0.7755972419013527,0.6984827634268348,0.41546477124715364,0.4245069260455233,0.6885375231876162,0.7762559116508211,0.6810977600957749,0.609643783435258,0.6823558104297364,0.7304876401950126,0.7951888381318207,0.7628084580684619,0.5449766839071623,0.42750801637640945,0.26226641795936234,0.04106797358565095,0.21755321333200572,0.4808924499007493,0.5736892984539007,0.49278730683954286,0.4934816191294028,0.5991977497910658,0.5877101503478362,0.5484777980409151,0.46427980102642474,0.42020861380792385,0.2810820826608673,0.0,0.007006215174887975,0.2901296878947345,0.5604545501965036,0.8244107266535089,0.8547979733812175,0.7342991716975183,0.7610654211337357,0.8129111801251706,0.8796958892942305,0.8644824109132686,0.8670209861906947,1.0,No
0.9884900980176399,0.8539913499514125,0.7377238834759394,0.7264150990341713,0.7035722386521384,0.7165496415920991,0.569655924501296,0.37841384072084683,0.6244622454001245,0.92931577982701,0.8978926560464071,0.7383656053942582,0.6387017500774892,0.6684775221170716,0.6431912032745997,0.662913493525437,0.5012890596502446,0.3658706161310086,0.6108687585915877,0.8413411715342338,0.8830639762673451,0.684512170215327,0.5414842911944797,0.583308479282791,0.7176176302980748,0.7097027047658031,0.5964643459037751,0.35585425922227376,0.5020269691037846,0.7581392291774947,0.771370819497009,0.6669126160165035,0.514457265314638,0.5498738298580781,0.5800153728608848,0.5669715242181663,0.33621307494384656,0.4594540221499992,0.6954936552355164,0.8128835864319637,0.7027636914841162,0.6424772955857918,0.6431817533021675,0.6390897339880004,0.6499395543812936,0.5887167388990049,0.51628004646716,0.5039997131564506,0.46967701138798823,0.473830510041366,0.42891224733352384,0.08578949174176032,0.47507700897585625,0.48283728215563926,0.2826076685197503,0.19265168592022341,0.4311807198987001,0.4415056483524227,0.4052479984642847,0.3801133666206855,0.43870452420021344,0.08649209951204373,0.4200700082471771,0.4967462569824086,0.2736407270738477,0.2210519719155588,0.5011331979470137,0.5640261387501733,0.568682917792743,0.39052983996695634,0.3975732636059579,0.32109408335181033,0.06988658708896356,0.5634718678849895,0.5651083367488523,0.32742361322407554,0.18257151473021782,0.47503954871229137,0.5310105672750147,0.5252512175263995,0.5038522296545853,0.5089266678071356,0.4145242879360955,0.048431796351862566,0.5297484089220434,0.6449669365361768,0.4049369899454929,0.19623291497202544,0.46151812210217,0.5704170401884952,0.565089967486001,0.5807753283894987,0.578255012234111,0.6291156317179292,0.23843520824238418,0.5595209023957919,0.793280342725823,0.6611628290842697,0.3576489143964636,0.315616859928328,0.4120871911066901,0.4298142716923099,0.39185112390094545,0.21995410663629578,0.319992633979556,0.04120246714296805,0.005934908077327439,0.36856515461473816,0.25874727992000146,0.036621085564588096,0.19588260644513777,0.4087933897006817,0.40329167623104656,0.42132006238938846,0.39830133521347477,0.5115170171896555,0.153576819250973,0.2194757073723128,0.6034479580385739,0.4337623665339114,0.19222603282499495,0.34307898324622066,0.5284659535776042,0.5160023590764649,0.535866231947641,0.47352196874955244,0.5518166890874214,0.28237336527566903,0.0,0.5397878125690871,0.5654466032523429,0.32643702384167117,0.16424930420652206,0.4358561790008899,0.4828622786703063,0.47858824400935607,0.49671569645355174,0.4457851987302055,0.5126902111118072,0.08611805083349866,0.34494291793010756,0.6734273291078461,0.5039035324744345,0.23735515442838206,0.3291840251875744,0.5067938364949445,0.4866758485052216,0.4800770995613348,0.41350526352784023,0.4824537610349786,0.1231729445602987,0.38039156379964556,0.5238233259312883,0.33378573489291696,0.1694664307775513,0.4083890017193168,0.5163759299923081,0.49752908461344436,0.4503102214704988,0.5119717889321782,0.25120662493679546,0.31151919596911437,0.5670264049241398,0.40132697680430507,0.21454273120600664,0.40979018716396,0.5191162213308447,0.4813002428516242,0.4532150157569381,0.4239277229296894,0.4259419111851299,0.04354803950022834,0.40983425541277096,0.5470991355252961,0.34761166561900314,0.17423969024960062,0.4320097904111293,0.519864607549378,0.5187259242581037,0.619877859305987,0.6252873817082509,0.6565319218945289,0.5259064334215822,0.3277681235095935,0.544203002250983,0.8191428630738917,0.7482883380715828,0.6819171338728607,0.5586138576720154,0.5957410762258393,0.6172680886193396,0.6452795491355658,0.4518405120906479,0.429967510898563,0.6573398199629947,0.8664214807572304,0.7277735017075821,0.6382919541632557,0.624410242696599,0.649668363804718,0.6540223493694546,0.4581852718894668,0.3470199424804159,0.5690837394650385,0.8036541931820009,0.7402701649003012,0.7141404181625655,0.5636168315563959,0.6276668171812023,0.6359342876897589,0.6507324871942135,0.44371446553053406,0.42569608138953186,0.7011841645669366,0.9668708436378539,0.7657095667395533,0.7281823750825955,0.5933761516367975,0.6529059942127367,0.6155708481730615,0.6355985649085243,0.5157142880696153,0.333993049623305,0.5687327851465858,0.8637295069020796,0.8070872705054448,0.7111130471068581,0.6474495506078455,0.6591571121190638,0.6606320486380692,0.6654211474113811,0.6051505446075165,0.34786044773879254,0.48280832311516164,0.7305587555478228,0.8410688326441802,0.6700973000100987,0.626546630175576,0.5612591462549732,0.5449478569238844,0.542723629189199,0.4782348907293761,0.19806847372060332,0.31022000975469766,0.5373768659014457,0.6516257671182872,0.5068975766134267,0.41648244912686927,0.4729480026216004,0.5776633214442217,0.5592238037913848,0.5128444188824695,0.5124567628096113,0.7908566233590735,1.0,No
0.9819062423332874,0.8536810306158038,0.8804132456489866,0.8540829016960625,0.8439879482569193,0.7433054082155495,0.6866128328803234,0.8229693689384245,0.6935035608117193,0.4038828468548583,0.6449309225672926,0.863337632783814,0.770792836135689,0.7991104415073982,0.7822329557973069,0.7770410957840947,0.7063407544905156,0.7082008354198803,0.8782916324632215,0.782437814778729,0.4451792175922895,0.5689062317255138,0.9305586507588888,0.9005599837136324,0.8918834185849225,0.8799076101816705,0.8468191959765059,0.7693683401677232,0.6422597143668665,0.7799677028576795,0.7857769211179584,0.48132409822010547,0.4252080908686431,0.8429986394692579,0.9999999999999998,0.9197786636095351,0.9269169055224109,0.8735487674207876,0.8411318067304572,0.8926946922371772,0.5946042634465492,0.11903031776445983,0.07945695576937961,0.4965095597511582,0.7353645818506049,0.6118768133287757,0.5803418023229241,0.7467163636287408,0.7870451378005157,0.8186426463001302,0.7969356210127121,0.8463288555482891,0.6242693362491851,0.18215544637220016,0.25049000695907275,0.6628922393108427,0.80953970927536,0.6295786759534894,0.612308759751677,0.7031768428246676,0.7123303854968166,0.7335177563183926,0.6972644763607112,0.7365170155993523,0.47112487970348904,0.10529048786484485,0.3331403303595364,0.702142560272718,0.7243577944424244,0.5623339510066774,0.6738236803135413,0.769400107758109,0.788715276520253,0.7909751681338559,0.782475879305639,0.8050688552404981,0.40861474839444734,0.12488655196446108,0.4526189659439812,0.809590493316237,0.8084581776158342,0.608057376997108,0.6854536872665113,0.7629786158050045,0.7814915172030312,0.7766636491780627,0.7567231149948623,0.7444503441512318,0.33594305207385333,0.0673281188745789,0.40268468622284614,0.7526994355960748,0.7565043543061056,0.6077011119461526,0.7165956619058462,0.7961784185846195,0.8041040960506505,0.7760016718098977,0.8117865607194037,0.7571593048999954,0.33438576805075004,0.2935058094252314,0.6798835649062853,0.8119687694562392,0.6561222256832975,0.6667604465403547,0.7953326022267422,0.8061778498185712,0.8053554615055865,0.7350515566464095,0.7726637742833724,0.5640513742738709,0.1536515020869822,0.28612580157302925,0.6751261909222166,0.7448239267546828,0.577436129985003,0.6467961852029942,0.7657292437102468,0.7908861093752833,0.7889129257665164,0.776414677325221,0.7874655767335621,0.38201833162138965,0.08314862087139763,0.4030382173409499,0.7786498160665769,0.7865315669411934,0.6253294555696998,0.7435148833749567,0.8189971516611665,0.8203106600361358,0.8007764901665542,0.7745336575059489,0.7445543596814364,0.3250603009969588,0.13064730198567198,0.4863123696406342,0.7733458477716602,0.6959838550685953,0.5789473367576845,0.7291646354861407,0.7736361333159623,0.8087878853548942,0.7881959178858688,0.8492701641552525,0.6649329607070842,0.33960031380495126,0.5870725913881076,0.8678930137734542,0.7743827921478321,0.6515441386818572,0.7799902142166564,0.7719221342140272,0.7332013899983723,0.6659872144356374,0.6654830993001013,0.49841679185878207,0.04068985123817126,0.0,0.4131904871113934,0.6426803572526676,0.5354665252096662,0.5239743989935597,0.5757716958361454,0.6487636131902483,0.7619037408606515,0.7988001996889686,0.7046126187895927,0.6822543077700123,0.5972159708714264,0.6605040470762427,0.725650166980097,0.4892269598981185,0.2901611205096042,0.6343156625420463,0.7785915299169617,0.7340148224931362,0.8068762826177129,0.8369981561919702,0.8647315449211537,0.7459921209532918,0.834459115314137,0.9498621008120709,0.7286981583128831,0.6086711370007662,0.9186295602369328,0.9315147866303455,0.8818375545878199,0.8760020112466267,0.8467047001459844,0.808579660335391,0.6659423471609383,0.7805976315244363,0.8531402104607657,0.6018039005499627,0.4417319195333653,0.7887515518502013,0.912634191285284,0.8452483483199023,0.8962934016086745,0.8932015546641667,0.8746398792725352,0.7324084608638082,0.7933163862448669,0.9186405045239361,0.7301153172610542,0.45935884666795856,0.7556448357688621,0.9584014866413952,0.847746907517527,0.8734787936279187,0.8638344511905218,0.8539410683991948,0.7640784399889264,0.6619188346450497,0.8196768663040828,0.806215903927131,0.4825922030246612,0.4628361529042435,0.8273753409075757,0.8616766922010772,0.8222760203847621,0.8889223711684553,0.8821582440841953,0.8782518637871182,0.7670274634154375,0.744679105660268,0.8946907819542427,0.784684176264302,0.505505173876138,0.7504031030872411,0.9659741655366216,0.8582719855909067,0.872818248703825,0.8774697646893073,0.8704787260027345,0.7745653556892103,0.703624678227875,0.8554673134455031,0.7821116866962534,0.43559987631642394,0.48807908526663213,0.8739738100453931,0.8697032400652958,0.840135153265331,0.863026475586522,0.8407661010838707,0.8001125183492455,0.6984497504864151,0.8678769500217725,0.9405393936011184,0.6997517305089918,0.5117427276860906,0.8509227160473853,No
0.9293813353705067,0.7021827124869495,0.8252456986510999,0.7902317358091393,0.8210884770284168,0.7957679068360073,0.7872743691790629,0.778342772399359,0.579688377296895,0.6400939543199313,0.8177754275130447,1.0,0.6989869566749287,0.7553189276640677,0.8105014194864228,0.8328211110664001,0.8216895900473036,0.7500892378617445,0.769467470202982,0.6865755200042933,0.5234426473453273,0.6823855589429888,0.8701624783083273,0.7908771518592195,0.5827470598038929,0.8010003077843697,0.7726134644314016,0.7932264635302979,0.8006425861417328,0.80986755427609,0.8051197144763669,0.6433618909672671,0.7223510092339751,0.855333941592451,0.915272540753088,0.633604168989673,0.8153719632546155,0.8222383526411394,0.8142653710461483,0.7927862670539692,0.7765528370879315,0.7766732056722065,0.5880995704587004,0.5976347344864439,0.7980985023073397,0.8785601606100659,0.49444026313403633,0.6285196250991341,0.7868719918778835,0.77905680992078,0.7830110915919892,0.7844610915374051,0.8693371646727579,0.817466000459476,0.5029177658556687,0.4783956541155687,0.6724818224300697,0.8130543648830111,0.5536134220511055,0.706794464424318,0.8613561983579814,0.8728038487675343,0.8964323369412299,0.8808602741275804,0.8408073168180383,0.8437839811432046,0.6642042599765592,0.6349660024469777,0.8120944322454928,0.9856290294401084,0.7708173660784747,0.8083021162797617,0.8623729302507805,0.8191573970061312,0.8225945357570876,0.8029416383724439,0.7845204000922181,0.7345284129880469,0.5267265712442701,0.6080741284346782,0.8435732157893483,0.9289651301614357,0.6186954238887363,0.8099577688720494,0.8199912576191886,0.8093776283679635,0.82118220367864,0.7987586878541411,0.7981201825950541,0.747687960115011,0.5321140852254413,0.6196389321751123,0.814818661954738,0.8802501757878538,0.5529067477455025,0.7375331082501666,0.7816164085891093,0.7737980375331328,0.8560390334988055,0.8532999159354673,0.8146193502160739,0.8029728512722638,0.6394125378275812,0.4727682819407608,0.19415709201580134,0.2220664552951881,0.22046208960153768,0.5604059056285084,0.6902682350251128,0.7121178279475271,0.7550547384240422,0.7233050975972364,0.6276019844640803,0.6723146051019482,0.46293434493416585,0.0063939972981583715,0.26261801624780334,0.7265622263999174,0.6584901767095737,0.4855169196918556,0.395791353859849,0.6273836154498356,0.6905180585597299,0.7011675249848435,0.7178375883985337,0.7141594958842603,0.6891305979402982,0.7158604741746832,0.41711918507288637,0.08196626056225131,0.5005466597533013,0.8110851985572096,0.6289433889691836,0.43555403270510995,0.42540379299827125,0.6429080581073205,0.6775946344836385,0.7023111658164489,0.708849694074893,0.6990933661840533,0.7494826381949582,0.5543323141542871,0.108998365744013,0.3189612732797906,0.7804342334657943,0.7156985597125969,0.537566630049191,0.5017021849631682,0.7181947422684822,0.7327146205149146,0.7564572225709676,0.7881232724824798,0.7569275128854986,0.7389624235707686,0.5041942462707691,0.0,0.11330054110395382,0.6043979537662567,0.5820489563841256,0.41330142978498197,0.3104223432639852,0.607932266521475,0.7639753558651474,0.6859518314444539,0.659829245182252,0.6704736861223712,0.6242851916781604,0.6719599483461098,0.3490911288391185,0.027296812845996055,0.41030794701934115,0.7187937943406433,0.5875148021667984,0.3891244000554219,0.4612200216947313,0.6540293000989132,0.6576895198707642,0.6803457643769426,0.695374378834372,0.6910782715136117,0.6843433441319569,0.26798917416297074,0.18461872022176928,0.6698328740859241,0.7166999853537441,0.6077636930180832,0.4946857380433429,0.6782427864417793,0.7018414455625241,0.6881346776250643,0.6951635885277221,0.6719697337611645,0.6857938024864665,0.30223286296418683,0.052614354869178204,0.5282815498683364,0.7422856038218679,0.5885157300577508,0.41468205358311705,0.4670847901276378,0.6798991801486238,0.6581192523721193,0.6811980539637101,0.6948625344989039,0.7192338107483343,0.694396064402786,0.6439616084221766,0.17984410600092504,0.16961135880527278,0.7090341093280936,0.7824820407905868,0.6112177591374497,0.46235916234998875,0.607419156737238,0.699753311190193,0.6738703422787569,0.6996828536405038,0.706024292590449,0.691323898934642,0.6117557711244834,0.2205356831062879,0.45910548240387383,0.812760602958527,0.6740207889652847,0.4658748139470994,0.5414236683691409,0.7111276624463123,0.7052188890029463,0.7364685278576975,0.7312556076661214,0.7072726156475051,0.6975493234462196,0.2672201104011296,0.10484058663137263,0.6045363025155894,0.7346296572278015,0.5449388551997454,0.39204513152683207,0.5915698719921219,0.7423365465181035,0.6411654327718641,0.5428697852630431,0.7205401285321544,0.9201770034985866,0.7528858442162232,0.6665834692644292,0.8442020136962545,0.8193833169534908,0.8329300924286795,0.812463741028032,0.8181005487772492,0.7647116416446806,0.5781625962624566,0.7046609668572397,0.9348295731305734,No
0.950338241130618,0.6030652520574966,0.45492512175312205,0.501047071059598,0.4530757281259099,0.4801076087511431,0.6212651711195836,0.5913735495847448,0.6531071733634346,0.6436788349821088,0.6507091395104845,0.6600826720588979,0.6862747093445933,0.6720480349725806,0.6423545839890323,0.5821682999919608,0.6831544470600242,0.6740686961967586,0.7578454934268088,0.7715260082351088,0.784004674222099,0.7302479795555179,0.5894858098908289,0.6315445536345679,0.6636646386808671,0.5984820238569459,0.64649921639147,0.7193015357896049,0.7406250191048196,0.8125925254623017,0.8272218597681884,0.8515702620385115,0.7564759181490248,0.6002389186512676,0.6327578541519805,0.5963587246514961,0.457750605712004,0.6458360470054942,0.6534520944541522,0.6773860494414223,0.7027804484048379,0.6922198592148252,0.6683044227457287,0.6560968627799295,0.6633105613573202,0.6258807517390945,0.5581794401648073,0.5468567101661459,0.6214002217404917,0.6111238098706808,0.6598274191102891,0.6754952299987216,0.7123482048451963,0.7217747493650242,0.7169895867493321,0.7294456896963619,0.6606335875522378,0.5574028769777115,0.7025602785881442,0.7050833848381299,0.7363797396295935,0.7605688254073919,0.7655556484273314,0.7450606074904282,0.6673937660001354,0.688233902125257,0.661961019211645,0.48781892625875267,0.5620478861417171,0.6988763457800076,0.6509275915410138,0.7012692402811744,0.6874096165660899,0.6863969566372234,0.7013235511024845,0.7038136154718551,0.7002774855428062,0.6560172026863174,0.5939961263109956,0.6177201018134504,0.6683894812639632,0.6598243166681046,0.6996525302659218,0.6967701056465394,0.7128703238875751,0.681892169314847,0.6629148964722238,0.6584005252510043,0.6169879011525685,0.5888580034474948,0.6808535739982569,0.682841440415793,0.7385019238923394,0.7459043280663411,0.7612679816401826,0.6961950711133613,0.676267983855166,0.6819557103666889,0.5686668499184457,0.5749342013054859,0.6928332432661715,0.654519370536276,0.6300508194224528,0.5504051081008825,0.594101966509021,0.3611969463508298,0.03341100920865481,0.27818011636961293,0.5556577753701171,0.5963998268102468,0.5901449967129122,0.6556096924201431,0.6548649299157345,0.659503301723614,0.6083186104744516,0.5872725038108659,0.4544964921914896,0.21502206402022006,0.39115371084898864,0.5647783848636148,0.5749942995940831,0.5720662984153666,0.6276244720106163,0.6058032759695418,0.6159873570794137,0.5848144333809784,0.5457564928822789,0.5231312300520217,0.25882449584324174,0.3900782057990577,0.588907640359484,0.6192360608175136,0.6104301653742499,0.6093002017295177,0.5975092294070472,0.612929269816918,0.5670028521626707,0.5465395414536065,0.45775669193116686,0.06026701098984377,0.1323964443679424,0.48757322001248493,0.6026283054899606,0.5818106166794217,0.6040094218638359,0.6735258237808961,0.6702199684293322,0.6659064634713956,0.5951685592576816,0.6142245924410066,0.3522797143509764,0.22394466263857327,0.5217063003987361,0.6379652383496581,0.6276592795490421,0.6367218934346885,0.6092554826930754,0.5805146125634661,0.5680566810426733,0.5039883930337399,0.5252853402720872,0.2852800800156432,0.23432859426078956,0.4582217738095995,0.5640279625466649,0.5659863576316191,0.5650225709818106,0.5953213861249673,0.6069943443840784,0.6140520143699928,0.5427672961388503,0.5622509110362826,0.3013317842981409,0.0,0.2787618948312982,0.5320905120495336,0.5246728489704409,0.510921737728609,0.6974303361996896,0.74950553648782,0.7243521762048499,0.700081483174892,0.608052013811609,0.6172931658923329,0.35925862551873156,0.2159284163346178,0.47745585149386205,0.5630548311081309,0.5244067041395337,0.50762135191101,0.6537802151385055,0.6775411395379884,0.6786001988168229,0.6420909392213972,0.5643956210594836,0.5548667295790493,0.2918432914078273,0.37892082504209457,0.5605206616089058,0.5896444400933274,0.5705481143652973,0.5566612217176461,0.5499729383942937,0.5617758637845487,0.5282494527035304,0.49661896332676125,0.46042429026027687,0.07902422065453374,0.08278156026535699,0.3613710726211803,0.39908624069654186,0.33544416839056934,0.5551935962361667,0.8836401969494836,0.8798350095690384,0.8263594293881127,0.7782222776260257,0.672780226550806,0.7002162620595649,0.43950479537737186,0.1942753992283266,0.4515963878408935,0.6676873350055934,0.6756389951791459,0.643963544703896,0.6329076157452036,0.6037594377847562,0.5903635532192539,0.5599127538876854,0.5239492114433317,0.5071063023887254,0.2652938168597676,0.4493130443913338,0.6233250569690534,0.6341476948415208,0.691619580426504,0.722733546883787,0.6825950944571892,0.5984550989146289,0.6314521691570882,0.6488386967227568,0.6383340289006263,0.6865750360486831,0.6846185779495562,0.711835593498459,0.7282582931611294,0.7606869941256749,0.7811314064297799,0.6778069040994565,0.6799040466391557,0.8150951299443117,0.778047722471011,0.8740947653408448,0.926467689487934,1.0,No
0.9907612777711106,0.9038074677917511,0.9638906090960417,0.9270265789590337,0.882087191558294,0.8622161554106911,0.7751978494274971,0.7943565343737635,0.8731135610467526,0.7155702604202436,0.5865915841207565,0.833868067185799,0.7608588201431252,0.8243656429702622,0.8003651550547177,0.7611813481301373,0.7505035003187288,0.6637956495353889,0.736899459287438,0.8911951488645173,0.7700425396413006,0.5241180210187739,0.8385963902554585,0.8075969444234983,0.8530279429398884,0.8919073002668956,0.8830064361063537,0.8966546680729093,0.8345182722286424,0.938998078650287,1.0,0.791559259829441,0.47939417082840086,0.8364321886948995,0.8958044885626211,0.858632396626887,0.8973708133925413,0.8702146432186222,0.8385461274968997,0.796892140007802,0.7776416281718128,0.8048396578666379,0.6647702476278718,0.7669693650587259,0.7362184090660224,0.7979992223369035,0.8243301137120946,0.822287487185517,0.7461871165057623,0.6636576200141588,0.6730089431791741,0.6398988847148313,0.5529747526820596,0.6125352006364189,0.23233809905009872,0.23949532211746982,0.6230543886190403,0.6625977099381761,0.5972698428799026,0.6766051577979066,0.662784645855993,0.7052855192133243,0.7283890960111696,0.6573920589961619,0.7417412576568228,0.3506598279823798,0.011032680811877249,0.5034137920844493,0.8123021571663269,0.7067167194977766,0.6621648124128243,0.7069014070629405,0.7179861797049036,0.7443313338775694,0.6539715424294976,0.6759942462629076,0.36797585188179704,0.0,0.4435939352285887,0.7098616241436586,0.5694440753399692,0.5389000420270662,0.5959000491075193,0.6281787275396176,0.6666003349001106,0.6535147493255167,0.5951766271637271,0.5999809880848588,0.17199724219193113,0.32199598384577577,0.696681135947316,0.6657210077424192,0.6145590288808478,0.7024201168352797,0.722410749860634,0.7696566720873643,0.7731506036350035,0.7376352694972654,0.7867733824871914,0.499505102207078,0.030912345806143104,0.40711923144024187,0.7910729375225882,0.7687519644907406,0.6717666619394205,0.7346400202551306,0.7588645343918388,0.7870896032970713,0.7122235880224617,0.7386035700594151,0.39628649184876874,0.0005390342055515696,0.45412776531641397,0.7736014558570883,0.6525215828819984,0.5771983932678011,0.6787713679596048,0.7122369838175682,0.7351701168054499,0.6366863666727198,0.6926442088708744,0.4680708372186526,0.0846700329472787,0.4835339200379982,0.7169679532333113,0.628800749104601,0.586680722770256,0.6485478259637261,0.6246391552482886,0.6557660021990603,0.6741040975619663,0.635929417383061,0.648398387800079,0.24119224892963453,0.3237247268633192,0.6989689930603888,0.6910209778043219,0.6085673574412023,0.6436821248175804,0.6780032838125405,0.7247230913165374,0.7093568403589816,0.6855792220758001,0.7021198995821645,0.19847602684637922,0.29825172435241365,0.7673591128131458,0.7592804129749351,0.5909093303504078,0.6596869205589639,0.6622816477525935,0.7056937517211477,0.6829969012506498,0.6489929055942572,0.5723979659962612,0.09057670438969057,0.32747849700719334,0.7433926917658713,0.6682114488428179,0.6105308098485471,0.7095150266980013,0.7066456770022835,0.7117561083321506,0.69377825014306,0.6415396448029402,0.6047330682268792,0.18689539473954975,0.4255807318958751,0.7146668940907666,0.6313459550253206,0.6065091540382164,0.673898797441078,0.7169526824748629,0.7463944656778101,0.7142370397571223,0.6581180057326197,0.6265747125482921,0.14707772473886216,0.2724276755267456,0.8144290012821891,0.8553736894692774,0.8505813137229343,0.915549826709773,0.8993382037481261,0.8472066499410871,0.8106027023220519,0.7581549651324777,0.8721981705335269,0.8126319580442791,0.6002945300906064,0.8532466552750093,0.8381845217821255,0.8763537899710188,0.8889338250342789,0.8742144953431419,0.8734044122479521,0.8131493612713365,0.7498349041278742,0.9212885837287552,0.8796312182065611,0.5498787592966177,0.7916116607981976,0.8854849225294266,0.8122331391218363,0.8761664679262751,0.8480759938407285,0.8371514533388771,0.773290860575814,0.8852421176231564,0.9572066495033473,0.6534005684295967,0.7511184182137907,0.9485005297738152,0.8444736856801454,0.8901695425031275,0.8745175071967175,0.7991329527838738,0.7686168595111091,0.7849115669021889,0.8990321384768429,0.7865669639607047,0.7273744535205866,0.8833043309544455,0.8107859842276328,0.8401110172695825,0.7888455086608963,0.781811362581978,0.8393159959954679,0.7550560686241492,0.8162406861690878,0.9151099297206202,0.7056668346857782,0.6395771947753666,0.8665169249516822,0.8166404623351871,0.8959288905152207,0.8865553138466735,0.8474812158476803,0.7924343637145062,0.7611047585337762,0.9239732619441008,0.8816308423223447,0.5782162856943502,0.8279446449819994,0.9144125458597911,0.8966580849043972,0.9596606838736212,0.9283928361164198,0.9154842063426436,0.884033611894,0.880607192692596,0.9899399411767722,0.8797378649078755,0.5246295085719339,0.7657401908348787,No
0.9108176541226396,0.7027339863589861,0.84677604025806,0.7603141817714414,0.7821734986974251,0.7473893961991938,0.671340700874224,0.5070030619041586,0.45440632088060484,0.5675918835669713,0.6478427070944608,0.5170946198068944,0.41589132509001936,0.6266933778880908,0.6359370384901324,0.7420114948528627,0.7119996443219441,0.6710364677913148,0.5769668030186867,0.6125000257523727,0.7278135640341483,0.8698626720383864,0.6632102364154064,0.6595894468240362,0.8478176052246782,0.7824840310227403,0.8679388980656404,0.8716778277818029,0.8735315923873588,0.828437462277894,0.853145100389417,0.8483893248759273,0.7662316768413835,0.449169344022772,0.40118894183464837,0.6382461327510109,0.6375111119446986,0.7538768578843669,0.8091717155471982,0.8619687933459461,0.8343606614467298,0.7361562579173808,0.7798959324801464,0.8253494319668973,0.6720780521579657,0.552009133666588,0.7301922713479507,0.6253621717233042,0.6397952038633223,0.6433519735464623,0.6495522786141328,0.6070231529526,0.6288537937653487,0.8157998331818164,0.9189530874042358,0.8049950739599667,0.7476078141147202,0.8199984141687306,0.7308004291810979,0.755853479280882,0.724291251516344,0.6670091195526446,0.5945593171986945,0.6694744268961894,0.7215827189230566,0.6010727693790534,0.4059114186204389,0.6051030300231386,0.5405837559660049,0.5571423116342946,0.5916068593429469,0.6573964572520479,0.633594756503139,0.7561191906256599,0.890371715108065,0.9437543930671481,0.6707007833507561,0.7045193295068672,0.7667938254826387,0.6919213995786591,0.774775513636482,0.8021051176107628,0.7228026553427698,0.7321790051199935,0.8360850919490621,0.9370306897830429,0.7117356001647857,0.7190557186271473,0.7211328622405258,0.6348625901531066,0.42557786909643225,0.10988458008614077,0.18040468066230697,0.5973404259974517,0.735551417557357,0.6584088602878662,0.5823886703609138,0.6524434582377581,0.6878963547052288,0.6395077908599556,0.5696806868965179,0.6757381154267181,0.423425512617285,0.17479056390223047,0.49341751115304144,0.8020569046545882,0.7585335665923452,0.6327593427032643,0.5164290180403814,0.5515261595211094,0.48871495059218795,0.4533416176095326,0.4402912915068409,0.4316163315047101,0.06488275702359392,0.0,0.39018470066103994,0.5735650433309119,0.5400784833083487,0.48569983743535894,0.5929705703366484,0.6261489593704719,0.6604569996504599,0.6291548310514845,0.7254441599015438,0.49886282489474576,0.25764344996776756,0.5685564526929121,0.7921808949286862,0.7080274398756605,0.5212399773238623,0.5108058552038655,0.5530754072893926,0.5508201863108524,0.5408659135693055,0.5260247870565455,0.6031870338919456,0.29712715268719925,0.19029382314629784,0.557728019848837,0.702344840339242,0.6810322859382996,0.6337636834636651,0.7330164678501674,0.7602641585923677,0.710468193952227,0.6247792540905406,0.5311833319071702,0.4808477540153082,0.1300703546835189,0.16787821020692184,0.5660200882968851,0.7347020714892885,0.7626337484856329,0.7217558765421017,0.7842956620193824,0.7742978440841315,0.782037510288186,0.692073872395248,0.7327767545084509,0.48680318645227927,0.19123569749095526,0.45512887025201687,0.7001131557550184,0.6024841298437924,0.49586655622221065,0.49473472814917296,0.588159504914409,0.6259105084459959,0.6464370962831534,0.5349797279875361,0.5382464819597137,0.25800819932844266,0.029744259405585005,0.34869432026050995,0.5453618947163963,0.47165461139763387,0.35125049060988056,0.41145752949894643,0.5804271540267658,0.6521348220095822,0.6917949619156871,0.6549161592390178,0.7318099798280844,0.4713615982288062,0.29773628870617497,0.6482683766232731,0.8654154187488656,0.7901596440212739,0.6559975094378843,0.6415646157616124,0.6034187219655316,0.6095137939941682,0.5754532601815388,0.6363613828787751,0.35028887107986173,0.12416690495930305,0.4424502604187499,0.6180894545921867,0.5695869642582561,0.5466699983293357,0.5966049598932261,0.6018115053911155,0.5955424355230521,0.589288479065937,0.6909092554476819,0.39850575835292346,0.24730859884198786,0.6134243907940167,0.8360873279831018,0.780815861269837,0.6578245464536516,0.691586988083982,0.7168673076688854,0.6734050888201721,0.5683975225909879,0.5974449876817742,0.3707418615016751,0.08155414055401855,0.3544422508475562,0.6398999070462599,0.6193587029043532,0.5681780931756513,0.6359240424505821,0.7242582172947423,0.7979075315306303,0.6207950217222884,0.6471190006997547,0.6936393628263089,0.6792644196647337,0.7771965722364744,0.812046119448832,0.7541754369100155,0.8186241545526751,0.923689298725163,0.8654468397004778,0.6163224512053949,0.7661347892586645,0.7154708830964818,0.6811491858392966,0.689071971277863,0.6916253517666779,0.6462370303519489,0.6763827833878759,0.764251265302575,0.6930808578986303,0.5828913671500509,0.7678515647084774,0.6851391752142015,0.7064273565051973,0.6989987562585649,0.7328944277645031,0.7590310993041156,0.8919608674333925,0.9999999999999998,No
1.0,0.9596726885797682,0.9603510479996262,0.9447430630579197,0.927351694464273,0.8790931899703827,0.661470926044752,0.6850112205806251,0.8710232809358689,0.7539380285852602,0.41719417036635154,0.6312021096330325,0.9503376355216435,0.9533401989010417,0.9588716031313389,0.948800463530767,0.9297411700934872,0.914619326999317,0.7278270303801788,0.6306687264857569,0.8266302883997332,0.7942751823406109,0.506522079635694,0.731825349640812,0.9846234344535794,0.9509771899536328,0.943664705791738,0.9289046480240746,0.9036863821367893,0.7668459626997515,0.6278061204810488,0.819396145387556,0.8633927654637175,0.5510766975362649,0.605205101979073,0.9445928416969394,0.9458515445033098,0.9564577317053682,0.9517014043360583,0.9281059179889923,0.9147878690683768,0.7661429882810737,0.6093975233465074,0.8108216018609977,0.8384147828898647,0.5000998928400806,0.5120010611111638,0.9011291810297517,0.95187917347647,0.9483970966462705,0.9399900792922691,0.9285058689297472,0.9222429946544701,0.8120762640019956,0.6064220379993479,0.7765302792513769,0.8403373554979594,0.5286813736302949,0.4770051505003625,0.8777731412037517,0.9698253579783298,0.9400826294929829,0.9393412574225879,0.9179727760333574,0.8812162652263291,0.6666890549570375,0.6767416036021774,0.8576658708832592,0.7344921670049476,0.5426489041627831,0.8697318320248884,0.9707086561392808,0.9345966405941559,0.9328697393495768,0.9222304633026654,0.9199118272139764,0.806038831308173,0.6066606001656107,0.775690000782232,0.8662603762692296,0.5922620790266984,0.4626535292651066,0.8432249502184126,0.949406833199852,0.9452911040738958,0.938255806159797,0.9184094614460232,0.9052278344164248,0.8223346284164381,0.6117063763894368,0.7576326973823715,0.8837161717885005,0.6629820830704065,0.5035197388506214,0.8651913837784777,0.9674627063601124,0.9501835334888322,0.9456220560883062,0.916511866426045,0.9054576657377846,0.712385823464945,0.7006200745384681,0.8945634274495431,0.7976798641942078,0.36209441174779977,0.05448869762045905,0.35606437219255915,0.7448673297359116,0.7929286461530305,0.574110519312915,0.6307830913532464,0.8322356446770982,0.8449421357308946,0.8653806859904543,0.8668873648943882,0.8824582706137925,0.6679708584847628,0.19315023553508337,0.07658130831954346,0.5195153800309762,0.792474628396322,0.6554087137419486,0.5049997714506325,0.7260392417625097,0.830359774591197,0.8418522338161649,0.8618058159054223,0.8526985301558336,0.871491239553194,0.6248130068719027,0.14235902337836115,0.10125436024192203,0.5578051846798235,0.7852099203848724,0.6321785093448824,0.5275143899625871,0.7650213777075336,0.8424159036102554,0.8524511694436194,0.8531992153661152,0.8514815651102654,0.8485380021473796,0.4586891069078072,0.03086095452100479,0.23235811310730803,0.6705225921581945,0.7644171624784155,0.549935156854247,0.5815910743402597,0.807570598306679,0.8452947247668412,0.8609079202665231,0.860531828549052,0.881052185214783,0.6847612029744825,0.18813172826885083,0.0,0.4291386347121702,0.7664456528605408,0.6623481858215867,0.5019437357629082,0.7287715677073607,0.838783163314158,0.8422598563219634,0.8583459362743446,0.8549445738666934,0.8760437398437841,0.6763452363284532,0.19116622410825612,0.12101957063674273,0.5760423109066246,0.8009282214343747,0.6235741750160995,0.5320419832691692,0.7720260274730593,0.8407944139726431,0.8587572662721668,0.8759079349949563,0.8625458497296403,0.8742844081020791,0.5899514439185971,0.1072741161775943,0.09898721974202984,0.5699128558895579,0.7998602747162304,0.6462874026552807,0.5405216841564746,0.7690410225169964,0.8422968413596603,0.855369480193847,0.8653242098477145,0.8785499480920516,0.8471635655490828,0.42454494010728516,0.008230200518830166,0.2361357494473102,0.679534268249899,0.7704173368277449,0.5836454095868029,0.5911595996638885,0.8192967662011075,0.8465165879923315,0.8617845426107524,0.8825610594606039,0.8655996907834953,0.8803862021348792,0.5959229840841234,0.11225366053389374,0.12079389660691309,0.5903713213657409,0.8007976652413662,0.6390472503551132,0.5500921274593971,0.7784011736430188,0.8477216546605209,0.8622950233402071,0.8783960839760616,0.8840907381885006,0.9149119137257844,0.7693767642514007,0.28625348907364834,0.05630513459206177,0.456288958337439,0.8299140154683586,0.7665669468828984,0.5198390030645927,0.6301153622810802,0.7980388256497606,0.8163330422586501,0.8281614607014567,0.8316443064466998,0.8567667683288178,0.7181676541444713,0.24564616678413453,0.0031495523271396486,0.3971535718032202,0.7552669877462095,0.7314881347687812,0.720444401198379,0.8568936934785873,0.6804037213696366,0.3823915782511538,0.6888095005901254,0.9455637810779334,0.9158657947701228,0.9096253521316959,0.905834999145688,0.8941418776186043,0.8158644649708751,0.6142167562813179,0.7776916842881381,0.9337328817704433,0.7087210896986043,0.5453212651831199,0.8971998879219747,No
0.9522376429272412,0.8995269360751992,0.904458564428632,0.8755700594467135,0.8484388620958934,0.7351018148999069,0.7553541289792569,0.8891373555002247,0.7600104856893604,0.4364232249965587,0.5503629568713051,0.8780766105804252,0.8416942946680845,0.8593733964047419,0.8553998238883844,0.8447765160747625,0.8205796856645382,0.7062427561382016,0.8055207158438844,0.9017059194321717,0.7081835028448538,0.47236763556575645,0.7524986480272664,0.9315135868991198,0.8760702122417932,0.9056414650768769,0.8825218121298783,0.8414351734935543,0.7288834105209545,0.7253848995457213,0.8548884615738483,0.7498234812272522,0.4480526977926944,0.6134944802165208,0.876758753281935,0.8308939523313752,0.8768298811818442,0.877753353678937,0.9134071885522823,0.918436323659563,0.7669331345463082,0.8359000917114774,0.801033474670948,0.508614621192091,0.4551618751608071,0.8025788410711645,0.8309799464260661,0.8492052234629401,0.8976071667838788,0.9097231526588689,0.8739113535197345,0.7894706175788013,0.9173516332738354,0.876512302313817,0.5624776612664517,0.3382795526935911,0.6518782948046888,0.8456171731879623,0.7950543796023832,0.8021225417222488,0.7503630373627395,0.7748910102976017,0.7486942906873688,0.8571683629784628,0.9206823090421756,0.6686928913305699,0.436444085895737,0.739749963079481,0.909488005996965,0.8773401587611649,0.8992156455663702,0.8927929900291944,0.9077978272904059,0.843845663493783,0.8169022029449899,0.9431341302239538,0.8277779286790661,0.5127543738409808,0.6191040158527534,0.8913038820452268,0.8399673994705275,0.8819112827327529,0.8660881292927385,0.8457388380263358,0.8158757763744258,0.6928773629978169,0.7983621660405382,0.8390312900837698,0.5810038615991737,0.3938417531501437,0.7285394037905697,0.8762141333016247,0.8588892310261469,0.8972789919432471,0.817845535351853,0.7096829805846308,0.6419199055008866,0.8203531185122588,0.9999999999999998,0.8933143167402249,0.5601488052570283,0.5987025673659441,0.9110906839952571,0.8838265517171331,0.8995999926906801,0.8892317442092339,0.8471628045718311,0.8423732346454411,0.7991772027353219,0.7953128723706644,0.5316474541304947,0.1978874960749144,0.22541166834632742,0.6345833824633917,0.9145886284086036,0.8494863344588468,0.6168229472473818,0.5995137093014211,0.7092408188930537,0.8072890069293075,0.8457501206002587,0.7568218885260705,0.7516571701676102,0.42775432910084366,0.03422213111287453,0.14387340654687186,0.5647485466730369,0.791981275055039,0.6833723944449996,0.6479960316577738,0.7777211949263847,0.790700338773831,0.8173317988130899,0.8143785901758016,0.7517665283702255,0.7266800477601878,0.3412129307069294,0.06005962562822087,0.3440274541387143,0.7360346743667499,0.8863529243454984,0.7534633034049287,0.7560838027347663,0.8499841127954717,0.8412306373915175,0.8438339620148452,0.8183269952586225,0.7872607815853774,0.49156837951307253,0.14636427362617743,0.34880818546805803,0.7441924152940955,0.8634565356273618,0.7161337888600183,0.6976065620685696,0.7053713708296072,0.700223505262646,0.7534587770790282,0.7162747444347521,0.6900411583996091,0.3257914862050464,0.0,0.2335669699152234,0.6569201627149257,0.8802315850790274,0.78225874531394,0.7298439723253995,0.8440193598130847,0.8495205606317504,0.8286989414493542,0.7612707366547053,0.7372221813515816,0.4527296948229418,0.047142030044357686,0.12307729161716074,0.5365858495781233,0.778853742870784,0.7171915961032562,0.7599999626672773,0.8887213444675064,0.8292906275194221,0.8232277044747767,0.7970520479423959,0.7597712570282507,0.6641327335260729,0.2486531599622288,0.05682506149940836,0.4032880498265359,0.7458394247913589,0.7447156394004268,0.6160513891743893,0.7304957470994216,0.808866040410908,0.8405480760782085,0.8331665639143992,0.7980692775948142,0.6656189419379959,0.23767211393555576,0.08348128213731698,0.45075121114757666,0.7936328062055655,0.7837182802885725,0.6333361268569719,0.733229315100624,0.7846629433365149,0.7951976534753611,0.8035818695141412,0.7535349846669874,0.745901920206081,0.4148360645195033,0.059966874732565234,0.24102225552404022,0.648497339751041,0.8332479005924698,0.712217751826665,0.6487179201645037,0.7780111001982073,0.8163049715918442,0.8480290267274009,0.8433570946360127,0.8496855786871003,0.6775998967625168,0.27811284617690313,0.21377635615260027,0.6004778242446238,0.8852513064931917,0.8207780473083928,0.6757886389437922,0.754841054151145,0.7792966842063411,0.8081779323261726,0.7766133681518486,0.7368362847654735,0.5711929935837692,0.14001136431417005,0.013853662625401109,0.39097635777081385,0.7325788708459415,0.7754491126076102,0.8240290402709827,0.804606209509017,0.510304383394574,0.48249039647440584,0.8159825156152662,0.8150875227545695,0.8522283751369002,0.8575566445625429,0.8343865508321788,0.7981769934785032,0.7593852674430832,0.932582778111712,0.9401102353769453,0.6367138723188379,0.48900900651389323,0.8325026188496412,No
0.8962752099289251,0.6174067103969998,0.9433607528195354,0.8836601844363212,0.8732708920031449,0.8770693365732924,0.8261835516015008,0.6465221949684814,0.721384441933318,0.9026003205091353,0.7861006370602355,0.6067620601933434,0.9130734693421214,0.8732822882898619,0.9234690121898956,0.9185561780592426,0.8177838892054434,0.7753136316381535,0.7103954568206783,0.7297585429979954,0.2659451940789732,0.2956140473943769,0.7123337992921392,0.6095940235120669,0.454529074224868,0.6385008528737233,0.729172659602543,0.7228023001133108,0.713531131711163,0.721759451231081,0.15028533833143598,0.13488719959999074,0.6916962207014454,0.6722985281337763,0.49492843142744825,0.6574593170928575,0.7555772737286137,0.7395775847627144,0.70499944066554,0.6845333418980695,0.1204118023050107,0.15551855940333148,0.6908752497420925,0.6470597635324657,0.4591186420433431,0.6385324994410082,0.7661883096290878,0.7732268316706454,0.7534107597475046,0.7023265377295527,0.16681648225070234,0.2981851601619825,0.7244850986957814,0.6432941280839999,0.4854372659778834,0.6510991307836953,0.7539536842362775,0.7243713221313177,0.6898040260214287,0.6709641002348237,0.12882269281255487,0.2728924909632995,0.6997549591038021,0.6063080310778046,0.5075736953555476,0.7183143398885448,0.7544708512857752,0.7175991399223891,0.752532299544054,0.5227380741202654,0.0,0.3786108543324902,0.7536204227815491,0.6128614113027528,0.4899057468240491,0.7056073090766284,0.7403771195001152,0.7115350309576973,0.676242282919151,0.6193734619767799,0.010851241964309644,0.08515949999158545,0.6913250468566869,0.6785296474836517,0.520712123203448,0.6395232696507556,0.8021156491905215,0.7866660387738036,0.7389832046986444,0.7240339487390495,0.16614250640252637,0.060703650133735465,0.6636584014367202,0.7059968090218391,0.5164066524674125,0.6000300905849505,0.7698917046324558,0.7503086043125196,0.6921184601113759,0.7098888736633864,0.28758622355273245,0.2675257241764859,0.6638164071652035,0.5273230308567665,0.47016879524365685,0.6749932029149046,0.7021085295533176,0.6917082185871126,0.701762913510918,0.49506346148793634,0.07902962987039919,0.5292534277953176,0.6838144234211487,0.5042003290643589,0.5984301592374139,0.7723079755998166,0.7770236437364515,0.7405477489554282,0.7941608087675562,0.44443763074922105,0.02489374384255827,0.5463986630603537,0.7699137634200706,0.5768689873282655,0.5190095612092773,0.753783764216228,0.7740621420318439,0.76461983315667,0.775029654461505,0.5889800761251442,0.08446894763354962,0.4827697905512598,0.7728474785105695,0.6002471781242464,0.4870168078987551,0.6913128865702567,0.7412699147174773,0.7279752684107117,0.7007575341292771,0.6567701444978704,0.12316155586852018,0.273631798157969,0.6895475459801061,0.5973475615558654,0.4611501536170466,0.6798013168457882,0.8544383985243149,0.769855449898734,0.6330453967253784,0.809765458244299,0.9536384399868791,0.599260360684104,0.7225269678808601,0.8940530274173564,0.8887646125897137,0.8912509153193438,0.9144354201653395,0.8445535484628013,0.6376488235434752,0.8017366726614639,1.0000000000000004,0.735603583428821,0.7928874217920199,0.9365866101610894,0.9068440344769946,0.9136090921446871,0.919803221790561,0.6958348468826059,0.6751738272306169,0.9242650687942104,0.9857618703398181,0.7104725807086671,0.9453304619025222,0.9180941425482629,0.9281145186988762,0.9124767645630549,0.8019464622707648,0.6249359707532758,0.782306841763238,0.8384263088790198,0.5656955234117134,0.8276144537626418,0.8381823012369747,0.8395312477989432,0.8286964292601278,0.7247643692138133,0.5999885686217321,0.7867982145073489,0.8923902744029704,0.5947369446454949,0.8241963678362416,0.8701842052611819,0.8927303834338587,0.9428568452060926,0.8351805841118414,0.6278080346396262,0.807335213118078,0.9918669587492679,0.664655879099088,0.6678532369929031,0.9186474302998198,0.8924803233392908,0.927981071444111,0.939648194461117,0.745683215889533,0.7042602399459836,0.8933562085248532,0.9708497766899344,0.5711817971640416,0.8137860213008348,0.8329955430707829,0.8579140999066079,0.8954107961239552,0.8530654155148412,0.6449026517138612,0.7739526181593503,0.9422020045643058,0.6860826301713465,0.7530701146258472,0.9336493314846948,0.8616303205301001,0.8847180053111132,0.8974953621646375,0.7218267305189272,0.6632775589354449,0.8379287397369946,0.8325500885162773,0.5740839121631871,0.8653569831850798,0.8428427954575493,0.8714835912721206,0.8983753757812769,0.7160989892280956,0.6747507379963604,0.876476512907634,0.9092751741229246,0.6227818087343322,0.912157487888611,0.909296091287553,0.9096651706148253,0.9128685425415051,0.8642809813494234,0.6286112759433768,0.6956342264810602,0.9151947492644719,0.9016805606271152,0.6041620566284331,0.9037531200714488,0.8671325997516721,0.872117803059314,0.8805481739185526,0.8294981942205002,0.6355799426938513,0.780509390158977,0.9839704380923471,No
1.0,0.9905750635039867,0.9952217357564912,0.8908145096502382,0.7569328276892406,0.8711029919811897,0.8077683842623791,0.6112494569642726,0.8431783987727592,0.8543125980624593,0.8724717251146048,0.8415026226622717,0.6856545373126113,0.7651497777036309,0.8111547709555533,0.5364002949427413,0.6533541457744043,0.8646353199594663,0.8772417824772174,0.9299522660705382,0.8451394708418736,0.7692453221075524,0.8955031357817793,0.7952723818933132,0.49775768451297475,0.7900380047166515,0.9057424149008289,0.9334801232794061,0.9394094457709694,0.8077114467669912,0.8109925954408594,0.9165319877886167,0.7025672176337059,0.5527740432265822,0.8725694169331089,0.8816028524258681,0.9161933906827868,0.8767881426329853,0.7422911153245431,0.8667289375975482,0.9210460616651659,0.6543755429777822,0.7883910889046675,0.9297891977978034,0.9284188899328885,0.9536893358132943,0.8390494631445335,0.8397930395737099,0.9373718805201747,0.7222190422892667,0.7523577713640024,0.9379625343643698,0.9126710417176795,0.9192552825578866,0.7999493569358584,0.735915130694135,0.8449381706032573,0.7336075253407053,0.7379221863042584,0.8364403003146941,0.8242434728756836,0.8603593982771964,0.8909284470364902,0.7841853493614317,0.8920748398666896,0.8582470732205585,0.5695029339093769,0.795691199433731,0.8977913470307262,0.9023620888509307,0.9193764626099141,0.7904136748239234,0.8177247098679987,0.9343528266229599,0.7724895536816381,0.6060919807956591,0.9060293975010776,0.9184534525476638,0.9557872995247156,0.9324272705610839,0.8027387721421824,0.8992414990720339,0.8961721138785577,0.5661572858023121,0.6970237040325684,0.9242112354595804,0.8734060392899008,0.8341114803049954,0.8011479130054724,0.6737144500397632,0.18265139459883506,0.18966636995466613,0.6692830388065683,0.8506235963614017,0.720573542046214,0.7912965614129153,0.8919970150830792,0.8469443796070895,0.8414105305858062,0.5939790525957576,0.10365039009049815,0.22435282156725544,0.6971392550275315,0.8434798271490904,0.7027662054885826,0.7334418724273153,0.8432219327740298,0.8159778114272429,0.7886054171537982,0.42162791198210714,0.055828927148833474,0.41090319974578815,0.8021470972180325,0.7656774805343161,0.7150926547236507,0.8214095971091111,0.7716761965821917,0.7364899995118916,0.7222301980041568,0.32336042724245884,0.01619203046029538,0.42039833487537903,0.7584636083978662,0.6924127214050015,0.6579141611030908,0.8265214419579614,0.8409488070571336,0.821039047012055,0.7022937028022236,0.21522297324181316,0.20220677896062966,0.6977926883627523,0.8563309559930987,0.713086601108373,0.7866560143469807,0.8837419815974838,0.8372614614400495,0.8396172961721362,0.5628154664486993,0.10176956826489669,0.2488058169520153,0.7413529474215492,0.829375685734437,0.6666984478964211,0.7525397896007067,0.8471313923042967,0.8053175583738272,0.7832044452027676,0.4210702696020112,0.035277373023151704,0.36702315576305544,0.7861637844002654,0.7927818342501878,0.6758371149966442,0.8260567614285637,0.8706137030706556,0.8209520490488473,0.7620528202220354,0.3234691973528765,0.042839405706217804,0.4681643310090666,0.8115504338655812,0.7333410888027521,0.6814564179404283,0.8383575587439642,0.8242315125798463,0.7708905779590012,0.599483194948454,0.08153305470481942,0.0,0.4856934448989785,0.7473453930666714,0.6512803599384092,0.6399938776670169,0.7932025615124116,0.7951681114494145,0.7713543035612638,0.578430483919623,0.07735676754071386,0.13047497354715287,0.6402153116802793,0.7960658399506437,0.6732508596274012,0.7904340336804347,0.9179063977669126,0.9110798050675464,0.8889108731060515,0.6653830971850296,0.16796766045737965,0.259738260982292,0.7423726289270309,0.8794599632355715,0.74142294986448,0.8271212193392192,0.9212173706934266,0.8752337258110576,0.8362471898869916,0.6995665130356481,0.1936280456873567,0.14346011327959474,0.6444909239472345,0.8430443535552095,0.7028562931080398,0.7469332311127932,0.869142721371809,0.8465429224913081,0.8185401824577476,0.6098250696225946,0.12390831802054003,0.15831520627916174,0.6616610711186595,0.804276184945584,0.665389286186385,0.745329701342412,0.860859705215943,0.834284809072535,0.8037886241438592,0.6394361045740449,0.1319285322722037,0.12050359094566399,0.6204785507364861,0.8044651183496905,0.6794971360095321,0.6686746705475426,0.7215847992660773,0.8651187363561528,0.8593477534356717,0.5542631740623691,0.7520632056927461,0.9047689872077846,0.9025672339152089,0.9330922898140788,0.8808172753316001,0.740238781463213,0.8521921327119419,0.875273649629305,0.5830616381153546,0.7534645101200077,0.9070546562100787,0.9237571186592852,0.9420359868300174,0.8706681023724885,0.767571079649862,0.9059691598125559,0.8524521423722478,0.7136755398445316,0.9348745613068732,0.9235086402644592,0.9773406908265843,0.9640515445637989,0.8278455145067585,0.9338000094282739,0.9519005978890016,0.6673403327337843,0.8229720054229719,No
0.8805681308353579,0.8393206979905226,0.9411350854563891,0.8449787125305721,0.8701493712046586,0.83666624748327,0.7655067949864933,0.7487894158145685,0.8771549310731253,0.8993101620520552,0.7314291085337201,0.8792724786803561,0.8342924402324345,0.8830411202429227,0.813996953654871,0.6204359498569385,0.6371029531671257,0.851726707818734,0.9098396009661109,0.7694629095384351,0.8733905692450015,0.8319840229378599,0.9186938837764513,0.9469331324416199,0.842856445972537,0.8327701296710974,0.9469385198180196,0.8247772703066594,0.8912568386796322,0.9555874124504529,0.8742606099751971,0.8329535454368813,0.8017821062019608,0.7693510644308041,0.9365107585077488,0.966845095680259,0.8048200398539098,0.8934433248302911,0.9044289874263982,0.9085509903854123,0.8982488470483818,0.7844095799109536,0.8109469766244319,0.6062506291197636,0.19884804748803786,0.49211819045251026,0.8199330232049808,0.7811897902489968,0.626913803891195,0.7046694290190754,0.7374159936833711,0.7718162075383925,0.83641432619401,0.7156422114907834,0.2417024041143181,0.21750537293654926,0.7041627855488173,0.7935862207051709,0.70258911160344,0.8154542156985247,0.8347696137734997,0.7463524624759801,0.7469085303569272,0.5910503668978588,0.12484061618899611,0.322624193204454,0.756933147138596,0.7298164229090358,0.5030675848239974,0.5323959664937532,0.7270429321527576,0.781491556401098,0.7228824921373986,0.7656970509517866,0.3916631007065292,0.13164333982507026,0.5786165503331859,0.7891503604380778,0.6880799963638133,0.6313748200573657,0.7438094201773038,0.7705295949053954,0.7663454538572494,0.7780300471474693,0.7556518208990899,0.26395973309505427,0.21208031708713282,0.7198526075552554,0.8683175628709523,0.7618206500708213,0.77335789465655,0.878998079221387,0.8751047608275804,0.8130020079517921,0.7656921633351428,0.7517698506389641,0.2680042747251141,0.04628760470838644,0.5331946391148277,0.7720011869537489,0.6649030112834513,0.6340418670225154,0.7746048303939266,0.7914837649136048,0.7647171891301339,0.6732107159111753,0.7479057208364219,0.4913589259157001,0.0,0.20901926641909307,0.6959005356493746,0.7505285723770556,0.6438316221998273,0.7692141735735949,0.8262731770320704,0.8032652490099417,0.7569243105934436,0.7941345826571027,0.6949250719413151,0.20642527438471303,0.26757390329452857,0.7104696107691963,0.7383932504400574,0.5933470205862919,0.6598504168233594,0.7589416902564041,0.7488603390955677,0.6568884820569743,0.6925202914318151,0.35306719284883004,0.07486090801386158,0.5055099072295319,0.7386415653101177,0.6452418875112946,0.7071242424892152,0.8085549257513147,0.8071602782850791,0.7537823767506993,0.8195561428863485,0.5904096709706117,0.10145485909739715,0.30082354352435337,0.7586918512257865,0.7839903724079336,0.6565299950555392,0.7930190063367135,0.8425951834609298,0.8364726159917728,0.7602835970849258,0.8049479817679939,0.587800023255987,0.13408409092239149,0.3859886067652769,0.7824253109571213,0.7321430944440048,0.5999714156849207,0.7291837902873723,0.7832086448564288,0.7989749741598251,0.7592715304754352,0.7791515569287881,0.34018358791196324,0.1600725390711668,0.6341701748881552,0.8101408397922762,0.7054169721644374,0.7008105902109585,0.776494787958776,0.7856569562549658,0.7198581418932797,0.6588631922052164,0.7183858181341609,0.28220155859442375,0.0695176117799261,0.5567228051317916,0.8279623772120677,0.7673160870001614,0.8613970222086889,0.9583472387092082,0.7963656558043173,0.7061191489941216,0.872477721103643,0.7522257435876583,0.8488818936999709,0.8746375254080632,0.8680159456022292,0.7760389471251083,0.8394907506150782,0.9277612463176315,0.7857486951533597,0.7681329270574211,0.9286805011029924,0.847187412091194,0.8979116972564607,0.8708293564231182,0.7857204354953478,0.7275589564929641,0.8795986578958788,0.8988337897818011,0.6606949714344972,0.8889392011175121,0.889134929793995,0.899161346905029,0.9309419106753505,0.9381206218592366,0.8398346112186568,0.790288650295683,0.9065779416590445,0.9151534585721168,0.8123212698198103,0.925372967546279,0.8751943960784652,0.9065602298209541,0.9007713995885105,0.7993610694821482,0.7581006456548955,0.8462303116269387,0.7428599863857048,0.7447301646488182,0.7972292146638749,0.7911886291882189,0.8516629444881199,0.8303329144576783,0.7060820877377174,0.7728968286410871,0.8951344047230032,0.8207110731516929,0.7575017166918014,0.9312067237811492,0.8549175450714244,0.8897509793962897,0.9049771295450144,0.914132614173448,0.7791947291281418,0.7990228670272983,0.8831899755464883,0.7151153268321955,0.764700540855864,0.8426747428030352,0.8121305862029349,0.8822560934904788,0.8882852465256454,0.8287501375236324,0.7142717045455962,0.8351690106916116,0.9357301025855107,0.7538219096740066,0.9033663913551333,0.8510941835431582,0.9148947026229499,0.9684148303940261,0.9717950746022583,0.8641241605833296,0.889966924364705,1.0,No
1.0,0.8850760085865246,0.8986676071802884,0.8726006055985156,0.8834654159173945,0.8265585743950585,0.6660052055999208,0.6778641430743133,0.7649112140265908,0.739402529053073,0.7059595187721315,0.8240006743112782,0.7792459810566825,0.8029115328233094,0.8150107888027427,0.7967122818417431,0.7559054560709648,0.6448183274568211,0.7020877429156305,0.7921619480036823,0.7668978376805309,0.6154729164910182,0.840017891009027,0.8981693934654,0.8913943137911984,0.88601099683977,0.8207302282991402,0.7739546070134438,0.6687241286578107,0.6627235982040105,0.7935176253456722,0.8362012137617199,0.7337592158504771,0.6975070549100604,0.85234186718818,0.8506958782670941,0.9366501749517018,0.9401781831521343,0.904870696962286,0.8753694970287587,0.7762292953241938,0.7618825913563607,0.8299637613622295,0.8323328865532376,0.6888179689914176,0.859946979917293,0.8924868501715109,0.8628978806091592,0.8922319724716385,0.8688552220151045,0.9127093217205204,0.8827728217891564,0.7207122718590742,0.7602092862081689,0.8061107292112899,0.6993389326906394,0.6382456663188472,0.7942086492539557,0.7484485203453319,0.7737519338772785,0.8009236716232166,0.7968915525898685,0.7646373624450886,0.6597812626919599,0.6859172354538559,0.7400218099485443,0.6564610347840669,0.6297057038152793,0.8658331293201393,0.8559511172467027,0.8527628744017379,0.8145523871604965,0.7802451935909755,0.9020597944838205,0.9025092019365522,0.7527122190103572,0.747935877536289,0.8086331420360633,0.7825542131507319,0.7370693282935505,0.972081164893412,0.9504773972948701,0.9243788030163653,0.8654219469769564,0.8241767870427399,0.8373030526718654,0.7685096819896877,0.7388253183710907,0.8101553839532443,0.8280492974174396,0.7512582523320068,0.8680450627249847,0.8670187507239175,0.8570971683777158,0.8889999292799442,0.9129352552208228,0.9347754806330388,0.9486388012839413,0.8382336891545772,0.8283404251893409,0.7664222981304922,0.7071431229612486,0.8206559893130261,0.8189073765018247,0.7970527210236331,0.7730455458968102,0.742326469274925,0.7316314654493477,0.7410095428606467,0.3708869955740255,0.06924819553965378,0.4692872229179339,0.7051494026480909,0.6752834790858291,0.6004335646179699,0.6699709889601153,0.714091831560796,0.710374489499638,0.7565778190126204,0.7958699345434055,0.839123607924579,0.8387198017353228,0.465125940228595,0.15006801425111815,0.5179820854599506,0.6835847192994025,0.6443292632279247,0.6231325294060994,0.7546998314103068,0.773231872704728,0.6666854564600588,0.7125658695890311,0.7560391203681394,0.7590406455662859,0.7499090548699194,0.37468091495828837,0.0,0.3444731999682733,0.6089601155684239,0.6124508551499841,0.5352521256774012,0.5872569399317751,0.6790008337931059,0.6930234842270635,0.6842431757006975,0.6326362379643093,0.6376140390898297,0.6394949564264096,0.2368498991393353,0.023454805952823232,0.45197656721308466,0.6821373246967486,0.6651099779104377,0.5939420738851195,0.7343941780441265,0.8113660479759051,0.762551047360637,0.7774038157229692,0.7631980027814982,0.7614032867290201,0.7765385329585963,0.41000083553746114,0.1255503339296884,0.4991697514348692,0.7290416840702552,0.6820080552787511,0.6269545467252646,0.7328135933518038,0.772008946522925,0.8086628479919415,0.8227266323949047,0.788213696053059,0.7259913763960499,0.6603838315943236,0.2296780611526752,0.12917899019561796,0.5802802056292462,0.711229596250408,0.6355171902576857,0.5174591882146133,0.595683794892595,0.6789910144508031,0.7281788262039215,0.7850245189671305,0.7658533835278365,0.7974279437026235,0.5929838512446519,0.14053196481336583,0.27796410536722904,0.6517935838269384,0.6576888702477688,0.5663169688840584,0.5497884368511126,0.668768386415695,0.7028430832757073,0.7108850019720601,0.6984570378431267,0.6787944835242454,0.710256401788429,0.40978640702543956,0.0913917840704288,0.4597226911593282,0.6637948518208328,0.5929192619183201,0.5104130014768331,0.6518961362338711,0.7610283384956595,0.7578580238790567,0.7805522570665175,0.7663219720011925,0.8249559850719859,0.8236414796053655,0.3863612305457722,0.22825819843019524,0.6661399670058974,0.8157431184878874,0.7545776518308829,0.6396474868980566,0.7356985670176281,0.8022878329777496,0.6990398105112479,0.6645739995326645,0.6633861540276542,0.7083720752418898,0.692553155872135,0.2979435710451157,0.0654018073934095,0.46632334751710625,0.6467292581660584,0.604964375274005,0.5418585019685915,0.6849239541033634,0.7320495093760084,0.7671665208637659,0.8430629734747428,0.8774633592461925,0.8369668813242472,0.7876192417304781,0.6501889585003613,0.711259657670317,0.7546715056944895,0.676172678256254,0.6174865767721855,0.8367034303587815,0.8065912006520155,0.7711349047947098,0.7786786025526968,0.8507099103013283,0.9231306920787539,0.8002597574164918,0.7896176589064243,0.894355816348249,0.9403663047394799,0.8185608822770978,0.8511892723691212,No
