0,1,2,3,4,5,6,7,8,9,10,11,12,13,14,15,16,17,18,19,20,21,22,23,24,25,26,27,28,29,30,31,32,33,34,35,36,37,38,39,40,41,42,43,44,45,46,47,48,49,50,51,52,53,54,55,56,57,58,59,60,61,62,63,64,65,66,67,68,69,70,71,72,73,74,75,76,77,78,79,80,81,82,83,84,85,86,87,88,89,90,91,92,93,94,95,96,97,98,99,100,101,102,103,104,105,106,107,108,109,110,111,112,113,114,115,116,117,118,119,120,121,122,123,124,125,126,127,128,129,130,131,132,133,134,135,136,137,138,139,140,141,142,143,144,145,146,147,148,149,150,151,152,153,154,155,156,157,158,159,160,161,162,163,164,165,166,167,168,169,170,171,172,173,174,175,176,177,178,179,180,181,182,183,184,185,186,187,188,189,190,191,192,193,194,195,196,197,198,199,200,201,202,203,204,205,206,207,208,209,210,211,212,213,214,215,216,217,218,219,220,221,222,223,224,225,226,227,228,229,230,231,232,233,234,235,236,237,238,239,240,241,242,243,244,245,246,247,248,249,250,251,252,253,254,Target
0.7129036178048356,0.7151792523846154,0.7253149526121097,0.7267345985234601,0.7225928570759663,0.7225458826010223,0.6889780710630413,0.6383123010760907,0.5799082178877435,0.5132295784289873,0.4618145544887713,0.48330697657918087,0.538063738396434,0.5909088511106435,0.6332130134909257,0.6714991053648913,0.6982392294790536,0.7484842755026637,0.835661503146103,0.9318496162848908,1.0,0.9567771223882486,0.8528014406500559,0.736951971179538,0.6321138780728175,0.5168246666038487,0.4015838057891017,0.37327183967789157,0.4758526060890933,0.5792657053625199,0.6756907438339566,0.7384673918134061,0.7328144797377538,0.6938640236499243,0.6457331293585189,0.6353541312002577,0.6744353471328175,0.7201776782169498,0.7466943480972503,0.7517464997268899,0.7591267658345204,0.7616479359532695,0.7391731906349803,0.7059125932443222,0.6671781090965059,0.656407380966495,0.651130718736344,0.6495150768376297,0.6530911507885162,0.6550742275094694,0.6579141457771565,0.6180788724591451,0.5582301336926263,0.498546083295238,0.47416037109302156,0.511749398319822,0.5700237705480591,0.6209391324925955,0.648643243650906,0.6653225598579535,0.7022884990176723,0.7894498979704245,0.884414706177588,0.9530555161193366,0.948207686961771,0.8580555022970633,0.7468883336735699,0.6358862780670793,0.5281232521591575,0.41193794306499276,0.363457065004408,0.4494293035555841,0.5536237028505449,0.6617393049169245,0.7202120237383891,0.7131255630622118,0.6845865530757198,0.639613932558103,0.6454754792570521,0.6843690655077435,0.7002681849974075,0.7054955020847036,0.6980204732773951,0.6918679088685749,0.6890458368773293,0.6848171239861967,0.6948816909399964,0.7005719340606031,0.7122673662599355,0.7101678395310125,0.6749387077574203,0.6200193894475987,0.5525848478830895,0.4896700736088482,0.45556740292628195,0.4871205391964004,0.5370378646017286,0.5839099558744669,0.6238361336194154,0.6514025842469762,0.6913157084988191,0.7644818883517379,0.859258940885332,0.9535792248900408,0.9674532408634544,0.8764118852179132,0.7702657818757568,0.6588986174760154,0.5426626202848812,0.4467484851917951,0.45741488782412887,0.5568265637260881,0.6528242232675652,0.7202417603689035,0.7197153631244366,0.6846505209266609,0.6363016680794797,0.6429829616966645,0.674814738740301,0.7038687010324391,0.6994486566991833,0.7034746621208492,0.6959332441646184,0.6864324829405954,0.650686770048297,0.626045696410146,0.634692927492261,0.6351783804986955,0.635151125796928,0.6297221512060771,0.6009309019520512,0.5680667122256513,0.563160634577085,0.6133262853617865,0.6532602430422507,0.6422760311882465,0.5477305734515441,0.44410251892477026,0.3381693705723121,0.23153681388753666,0.12659433533521725,0.06929509657860278,0.12853289795227507,0.23075496179486255,0.34007421513765523,0.44822420501692717,0.5587155754186708,0.6729177634439054,0.7029819431545534,0.6381988473838986,0.6015931267102435,0.5688405594977715,0.5367946491166267,0.4909559009669473,0.4426177868894774,0.39575009378933146,0.38162388062915875,0.4230976865984757,0.48901496580869486,0.5578531723004088,0.6104373978649553,0.6398434853949344,0.6416533023641446,0.6356551584333578,0.6324722655315207,0.6192698454949284,0.6194315609164738,0.6251335598978618,0.6339209673225041,0.6350925889862036,0.6255261884797694,0.5951967504016271,0.5717696153054428,0.5886365278232613,0.6345368285512754,0.6451490617385205,0.5779857917992879,0.479755893049588,0.37392921647207666,0.2675120401617552,0.15011498426120085,0.04622734249914551,0.0494798711965343,0.14413122717901716,0.24568863927633844,0.35748786223174145,0.47213327893037693,0.577197221181823,0.6931404041519724,0.7587530046864246,0.6969430927029494,0.6342026179101055,0.6021045637550335,0.5826608988747131,0.5509052689430254,0.49439233779570646,0.4408415447335696,0.4009880541462856,0.40623023224165333,0.4594571330689563,0.5243002737859781,0.5887493217249071,0.6120749538720744,0.5903775441512025,0.5822786809161902,0.582660369700831,0.5937939304548769,0.6087509786414413,0.6358885169017494,0.6704423240017197,0.6923962831074046,0.6933487784699861,0.687471342271563,0.6779578371399335,0.6767860055542125,0.6346815269076429,0.5925976969135922,0.5710140303533424,0.6104058654564946,0.6576898734934722,0.671818851923768,0.5997543859579526,0.4951249761689893,0.3905563787390296,0.2844794388691141,0.1734153500597615,0.06765592062573189,0.0,0.06224611394836321,0.16491838108921142,0.2715887626737725,0.3820798599131945,0.4993482564978202,0.6056277193040831,0.7180148192891798,0.7944795871256489,0.734453097566556,0.6626565574287291,0.6315405952083086,0.603142871846666,0.5643841084014016,0.5230007181524994,0.46355528855982,0.408188174557794,0.3927472668126275,0.43593361702654443,0.5004643659970398,0.5650292039124238,0.6229959104496201,0.66065486628138,0.657961412468163,0.662683143585387,0.6546137776522296,0.6485130597524975,0.6527901496262962,No
0.6110835842443905,0.6615746342210951,0.6957902325550815,0.7411131895354579,0.7166658397754091,0.5957943726453356,0.42502210314935596,0.28645684689009254,0.42502187132078717,0.6113843947184305,0.7750649920964321,0.8476125914145793,0.8621427565638733,0.886016567148892,0.8931922801790924,0.903663698294455,0.9468452372825862,0.9584796093915866,0.8717040892075882,0.7502196505717329,0.5893340411553485,0.548792848056034,0.5504308419835624,0.6518748080766947,0.7598643682528143,0.8353069263710049,0.8606873557882437,0.8433762995342375,0.8204677336936399,0.8156940761108586,0.8057916677737689,0.8299128714443311,0.8369549976369095,0.8198913301724788,0.7992914302097738,0.7554127424145944,0.701183803356999,0.6422251011916318,0.5910503794741349,0.5793837114439988,0.6122008442383722,0.6463665794384319,0.684375799093317,0.732268774861371,0.8005247205593955,0.8347398020076477,0.8967078703957654,0.9637912963956818,0.8553934198874034,0.6536818908862729,0.5342893356408709,0.6637834349762084,0.8406160720737583,0.9810655371255539,1.0,0.968421097096817,0.9579471588549957,0.9620482589559698,0.9266669204015203,0.9680078566358716,0.9453720959608107,0.8999168651986995,0.8033298957805322,0.6569741661833932,0.5220685456253689,0.5134158192690208,0.5312831925000934,0.6181959085261033,0.7175018588674273,0.7893988348916983,0.7776963890615551,0.7690849938105133,0.7725309536715574,0.7739337920497924,0.765524968899995,0.7571946618269383,0.7545404403187135,0.766924382256783,0.7410956327823817,0.720247920267437,0.6718024497816426,0.6387831251524405,0.6130923502153314,0.6123436080316891,0.6246096472342213,0.6541493254270829,0.6850059793167889,0.7144673297522273,0.7385973734098217,0.7903119928728222,0.7649574471024003,0.6175180690962501,0.4410403710764266,0.3919611415895572,0.5544318015121297,0.7409245104714577,0.8995493835984698,0.9698966862720653,0.9532816270565085,0.9502555241911939,0.9586556734557163,0.9540243480234647,0.9758310925914868,0.9229020483347483,0.7922744872731284,0.6429954600135144,0.5223768485716667,0.5179325461752375,0.5701614439433174,0.6664881436266326,0.7721186328516749,0.8553430465944922,0.861521571960389,0.8703348784124296,0.91410094011853,0.9682270978218082,0.969342326174873,0.971702847794508,0.9789001122485947,0.9860730453236073,0.9783598825959396,0.9140933615989599,0.8298118275095128,0.7955945004770442,0.788777271069967,0.778646152830115,0.7918407577173268,0.7554363377515463,0.6490767291894937,0.6372174394073156,0.6368011132182234,0.6165721422557251,0.6383415798960543,0.7307702747592604,0.8071799724542705,0.8431426678435061,0.8386318605606808,0.8231008548880343,0.8204377672435506,0.7849430823693764,0.7544970206894304,0.7228401162098024,0.7060340313186808,0.6533686396085852,0.5819366478163168,0.4762085329917767,0.39410698372516517,0.3782065949429514,0.3656507875189874,0.43973075476942913,0.5930954287005159,0.7443091168683145,0.8315554350682559,0.8245263189972833,0.8196633022942788,0.7966348955891034,0.7641180867045687,0.7332808763783865,0.6353807702705572,0.4812944007339235,0.30313734326445996,0.1180811501050476,0.036744645123245157,0.12754350013161275,0.28050913629505203,0.4635546354706639,0.5997145653677958,0.5960901514606958,0.5666082987313432,0.5440329658545826,0.5143495657163584,0.49818827127049037,0.4719665045610224,0.4710981715150826,0.4814632942225092,0.5231896694287395,0.5570415363883772,0.59542520513802,0.6233862091357123,0.6120746011055482,0.634565806742243,0.5917960728215599,0.5977714975987443,0.6361514249496372,0.6371894648782668,0.6297997982068946,0.5535048776830855,0.4499696502679953,0.36355382492893096,0.3212143584958227,0.35441437246883645,0.3434507319418687,0.4724158113059591,0.6279222380981837,0.7429421754741163,0.7619472235654472,0.7799916244666134,0.8028415304172931,0.8033430045502001,0.796487421266078,0.6835155071180576,0.4982123492663968,0.31715794746447123,0.2376232976584891,0.34165938181954303,0.5064081280829891,0.6824322262502411,0.7197267467262591,0.6648675493409808,0.6403296335685207,0.5907478976171481,0.5428425468147502,0.5126531304118425,0.4847953421308704,0.4341514808461566,0.4005632193529918,0.46967019542584776,0.5274703731343005,0.5729344029953047,0.6043058379442101,0.6574291714557416,0.648330491950575,0.6588892852913766,0.6784403647768658,0.6780338987611589,0.6610613073252738,0.6771358620659731,0.7043348345521743,0.6932341047318538,0.6281152646616608,0.5223324908870257,0.4391186533572977,0.3897229184674922,0.39548628423511634,0.49826691356660646,0.6521350749209827,0.760430258555334,0.7818227350594436,0.7589451668627483,0.7359622802341956,0.7286990653616199,0.7189098789415604,0.6750342638542701,0.5147575360049776,0.32689302635496365,0.13367424963614472,0.0,0.04268993676775512,0.16585003080357907,0.3634452675531694,0.5494598499025889,0.5393458215554974,0.5222716284290154,0.49166779576784947,0.4549491945705908,No
0.9190933498520413,0.8639181541469148,0.792459535348788,0.7096671889426402,0.6307075346312749,0.5969579878743057,0.6479036950011241,0.7149594662634255,0.7880152865656869,0.8498065133504862,0.8874894251882139,0.9224481173600259,0.9333531629789347,0.9502914498256008,0.9561526261460793,0.9230347960988285,0.8384187975721789,0.7277517114423278,0.6878357916926903,0.7882470940273336,0.9091163191425697,0.9779377631304214,0.9804922957491202,0.9558224333381058,0.8905875783732067,0.8583113269474074,0.9046329820319343,0.9503631346212034,0.9548448808936754,0.9624079878048608,0.9613298324441875,0.9490698833974762,0.9471495988647152,0.9525706817369537,0.9377475155171857,0.9334062022727396,0.9384804581501358,0.9340166558936902,0.9307371764780785,0.915401807115308,0.8684869892533325,0.7932181395451705,0.7124782310165827,0.6320612374926724,0.5867527807235331,0.6253807422947317,0.6934185226880767,0.7598047019763414,0.8236946553979791,0.8690012529702122,0.9043173428034468,0.9300199660414177,0.9414148956354853,0.9551462265193615,0.9228678845559082,0.8662590110252548,0.7695181867240315,0.6610185633271635,0.6494203161972791,0.7565745986959471,0.8709566715644632,0.9563401663611608,0.9661122563292075,0.9303644312887598,0.870740577566028,0.866169974051934,0.9229189050928372,0.953490908121899,0.9514880446597163,0.947980192698199,0.94840159940208,0.9482335676747762,0.9343772330380395,0.931431548738114,0.9322731483814857,0.9445984051638661,0.9375002922403288,0.9248384563538883,0.9033757785806289,0.8351862944536261,0.7593102526242612,0.6738461855435536,0.6106758566055941,0.6266268707685132,0.6891868354918507,0.7571881437935084,0.8199842774157244,0.8624757422223435,0.8950566933935575,0.9228860527663438,0.9617846974671309,0.9784769773718338,0.9724505586717545,0.9227532447143649,0.8274012720810413,0.7171297065392133,0.5995352408274015,0.5252643945827473,0.607640270921332,0.722838316967418,0.8376807190880551,0.9283789442140074,0.9963690146488156,1.0,0.9541951198470691,0.8932957463393514,0.8836636772056741,0.9301336121128156,0.9608384050818102,0.9635395386282113,0.9588368941787371,0.9514823912588186,0.9446883448695167,0.9424548709792986,0.9433271904831004,0.9077561641853258,0.8713801965463,0.8787965146649919,0.8865378918211602,0.8821493917850396,0.8954316923741121,0.8894985288037458,0.8887096428319619,0.8663336570493017,0.8156132414034158,0.8109769809113798,0.8651338931129966,0.9242971876592838,0.9149898304304811,0.818102282597875,0.706684104769304,0.5866527344575618,0.4739506834391034,0.3491363247928385,0.22333165313619796,0.1055235611566796,0.04824573946154098,0.11843668427341036,0.23881273193208363,0.36114165315616065,0.47337563155643236,0.5970207583351326,0.7101072617134023,0.821150296963395,0.8971963139803649,0.9175628790127126,0.8809499109614158,0.8509956347505439,0.8180712311861322,0.7786207861011465,0.7219103546065724,0.6504040415609644,0.582824656994346,0.5294600251796306,0.5143602151974025,0.5657681064612676,0.639416012508903,0.7228961254045907,0.8063878668028277,0.859044077804259,0.8598207405705645,0.8738062629535781,0.8747906977193645,0.8816872671047347,0.871716982540145,0.8753199853376583,0.8749332210477165,0.8839532654031892,0.8867851826423752,0.8863738233016818,0.869914599575516,0.8178614122210957,0.7700468090815002,0.7958699345573059,0.860902178160468,0.899571005747466,0.8565064772500937,0.7502564409434034,0.6354156601673946,0.5161515132059771,0.40204730222845253,0.27672031029885114,0.1509159576471637,0.035584259141789865,0.0,0.08165023164242546,0.19969147052993952,0.320238140634459,0.4335568330941384,0.5586067266799697,0.6786027880116472,0.7875827966465225,0.8627063958157901,0.8752559765985182,0.8690772663046826,0.8539607827497098,0.8262331834544785,0.7862225621726555,0.7262836177291483,0.661180998385666,0.5888402644258139,0.5300528811380403,0.5092151385056432,0.5641329208025336,0.639242073100986,0.7232453297270394,0.8046438172367103,0.8542491903426952,0.8679300763865192,0.869120243403811,0.8762973396326603,0.8699237306610099,0.8741290418851002,0.8808661144073522,0.8911998279176969,0.8942014126362592,0.8921594621440856,0.890506704887783,0.8696854656184656,0.8160236332854827,0.7854565405485912,0.8212689711213308,0.8814599171876969,0.9156805119460438,0.8519235473564595,0.7423564097697262,0.6235133387979528,0.5107926353408576,0.38705501919700813,0.2745072467777194,0.1528216750301703,0.036726843291878364,0.02565639502233985,0.12807535297229622,0.2483940285670898,0.33642742950237814,0.44950327884473307,0.5712091088534219,0.683448531108414,0.7970745063153446,0.874539084317,0.8866871071920301,0.8813197346113233,0.8494609661094548,0.806569927870127,0.7702746294076683,0.7070209980484963,0.6331188031066781,0.5637008204442355,0.5207986813999246,0.5464285438424019,0.6166609295000516,0.6980925320958602,0.7815718803116045,0.8468857967737065,No
0.8136159256130142,0.798022923835422,0.7694515313649508,0.7210329618335143,0.664635130277905,0.6381266215711374,0.6571890980392303,0.6487295600314371,0.6229638015473151,0.5755042489549025,0.5126974479691411,0.44902074445709994,0.4222500467194883,0.4790694044454966,0.5438687453455939,0.6066390332739875,0.6517388300217424,0.67969645621094,0.7237257142343334,0.8021372361799464,0.9008233202021643,0.9962715348838618,1.0,0.8992708849413065,0.777237659881246,0.6637755614455085,0.5574953027578511,0.46313925226731234,0.4347414399425853,0.5316230713842951,0.6238961212594072,0.6750287208730121,0.6721598047621731,0.6427594532901946,0.5773566816221831,0.5256589477584495,0.5100023889927456,0.5293237666680959,0.5247861313505777,0.5335121999533952,0.5457793556574853,0.5462212214947564,0.5510186623868183,0.5797670810138795,0.5978805218578751,0.5842700745424798,0.5421377958918683,0.48262309799319425,0.41747861092696636,0.34802989652251526,0.32556636154298824,0.3801812046741526,0.4567337830247733,0.5281018462297804,0.5711118051543518,0.611524539310798,0.6550865137865669,0.7315130163913279,0.8291787772304828,0.9383455844566573,0.956062323219498,0.8657388384531952,0.7495950198069319,0.6290925645090186,0.5064759220163002,0.41032741762012437,0.44756920616359386,0.5626500039881104,0.6419626075710259,0.6471484560244845,0.6005726983315993,0.5642869773715233,0.528946672913944,0.5508431925720259,0.5782876463757116,0.5944446847046558,0.6021850533336099,0.616365332748829,0.6098851393245002,0.6010297677730985,0.6017607233470961,0.6224304764186934,0.6366507061008089,0.6296426375022084,0.5829464237703403,0.520792294932368,0.4563217644993518,0.3921639203848839,0.388927452687283,0.4499188335694475,0.5167657066026092,0.5735650658299605,0.6097426155112591,0.6441764969816575,0.6948569546706138,0.7815162632852783,0.881569572350815,0.9382220681352109,0.8699105082059808,0.7542358681317052,0.6403793185289088,0.5139374867399904,0.396558166472603,0.37910262528664074,0.4822237142247876,0.5868581618847752,0.6522261404186942,0.6711341437242435,0.6537231865672912,0.6102707114773516,0.5831411198389183,0.614176921740154,0.6360699350692736,0.635433267384307,0.6250074032522672,0.6203579755903097,0.6109159221179574,0.6145990337658551,0.6306389947978879,0.6536217508635791,0.6558893354452731,0.6191881479042691,0.5569813996047528,0.48630647728532406,0.45697269256334305,0.5162798235846386,0.571914225425433,0.5983009460824658,0.5855907052030296,0.5614201326945225,0.5537478658718573,0.5536750980286298,0.5564132141210663,0.571181442883915,0.5670942618103361,0.5464834472260289,0.49604705004489746,0.5040050932645288,0.5629575808976277,0.5849381325093015,0.5855175654712905,0.5230353648797461,0.4152341865457907,0.296052937550471,0.16822198315125592,0.05620631485269323,0.0,0.07192216761088543,0.18467619485008235,0.29995990466642697,0.42243204449336336,0.54776156314355,0.66127871994895,0.7356870216480758,0.6643705721539894,0.6016785374021181,0.5697470254430477,0.5281269831654813,0.48380287758354035,0.41915453974870287,0.3499598491215128,0.2953888280983157,0.2807865675612842,0.3441466203722867,0.40695558962661105,0.4731792055223445,0.5386363095072384,0.564479992966866,0.5481441267665139,0.5454419865814653,0.535132201460855,0.5374389942295132,0.5515388441430167,0.5395635717316023,0.5276511982538978,0.5262421212828046,0.5052831308462435,0.45435114425045864,0.4382434929783594,0.4797912679143441,0.5235773137637412,0.5716317644337163,0.5517267219034538,0.4528903325925473,0.34268568105282826,0.22523780696879037,0.10755175964362351,0.020207651628808776,0.07227879158022743,0.18394382285977517,0.302414482006391,0.41677014769152354,0.5415691247141092,0.6645772592021375,0.7512691070786617,0.7064276301500043,0.6202685237551466,0.5691322657905915,0.530063757929649,0.4823148336957117,0.42658943249938996,0.3543179189889871,0.2823661196061025,0.2537651582827314,0.28118124424827196,0.34535566971017717,0.41075711827194494,0.4741705576533821,0.5205025367963527,0.5224634326045234,0.512606135697673,0.48667231002993105,0.47516203047101513,0.4702231253654716,0.4563318337726372,0.4522982657072876,0.4395119052556842,0.46026344516784645,0.46487375487976745,0.5237657901747106,0.586993549579959,0.600547110581501,0.583698055811738,0.4958949885558881,0.38678549901791426,0.2744281863146787,0.15904524042333046,0.09621091659909764,0.16518408134298124,0.2789456363602638,0.4012288126439607,0.5295876751003954,0.6467046391818645,0.7623265923484595,0.7812535791718402,0.701139687409996,0.6452438009940162,0.6143877913297118,0.5834804806899538,0.5229659520294989,0.45890563028814757,0.39191141196898993,0.3381447571415235,0.35219742924259023,0.40536893756841774,0.47298731237353664,0.5265708867384005,0.5679187883646724,0.5797685875332288,0.5738737352354879,0.5843470390877274,0.6347476114660684,0.6968667903095032,0.7275507544154522,0.7454462838216505,No
0.7284494518199551,0.6807547132753786,0.6190097909203347,0.6453670620299858,0.6815700168647565,0.7324875770999775,0.7584476286316457,0.7506595774636518,0.7282815009346848,0.7079279882107947,0.7101365291201214,0.7222353094913103,0.7069986433407855,0.7062155880561942,0.7061711425209021,0.698113491643249,0.6592544749177636,0.5931517600357905,0.5195433440253252,0.4228480605820426,0.3436445517712974,0.32396283616805555,0.3905363073988344,0.45919058392488843,0.5198377207809033,0.5828172959416316,0.6310904484315811,0.6688588705966767,0.6961491869067125,0.7390276923576069,0.863386148237387,0.9486939793107414,0.8941163445964717,0.7520513623963945,0.613567733715219,0.46668736281519596,0.4492884147715257,0.5800198788527036,0.7116605080530771,0.802473129628269,0.7946992977797196,0.7917123116442308,0.7605701275745878,0.7144015000263089,0.6504970645577925,0.6748462505976027,0.7060580857560721,0.7312225006571635,0.7325550744523337,0.7238090213225332,0.73261376724109,0.7530787295389363,0.762165911126508,0.7820683505543631,0.7726038517357372,0.7595052010951644,0.7447454111689389,0.706110192061705,0.6502791595774209,0.5541790590987388,0.46867383987451294,0.3930990437942139,0.34630867652482245,0.3951415260456095,0.46697452104098947,0.5382251932417574,0.6000468846104852,0.6448862354022156,0.6895999457125308,0.7290738957099014,0.7823238831022152,0.8935971542557244,1.0,0.9826971994303006,0.8490044410034674,0.7104924194825788,0.5613773319241817,0.4876082407599709,0.5926413831690374,0.7078553129681557,0.8186177154397516,0.8555668978510989,0.837073120236604,0.8158906097524063,0.7909595057841106,0.7112656751036583,0.7174779863252931,0.7515527987706419,0.7903113792485605,0.8116898188247097,0.8128416328513302,0.8127991863503619,0.8068977857367141,0.8006271942866476,0.7720222868772462,0.769055639563252,0.7616497051093143,0.7530982220331763,0.6935746347598659,0.6135798820280316,0.5289149580610504,0.43333640475459934,0.32874173430087517,0.28611693268479055,0.3296762318064763,0.399427479921445,0.47160123769835405,0.5358516343012578,0.5906717661807726,0.6261688651759298,0.6561935145389448,0.7074090015144572,0.8159227359140502,0.9203640974604612,0.8807388824221176,0.7444555521459026,0.5961278828321195,0.4491203894898108,0.3541522605066101,0.4503985889812796,0.5836418454334575,0.7067595080960958,0.7485249450200726,0.7120425600500919,0.6984969531163463,0.6523183596134485,0.6212062375729772,0.6312888320417205,0.6320693876973591,0.5903980179846942,0.4585267101473356,0.32616533443712914,0.2190698853081674,0.08612333198011601,0.0,0.0507998116143229,0.17348732652706644,0.2900615600726555,0.41142978040223,0.5653468727574449,0.6223018147614034,0.5867140060399558,0.5631196265393772,0.5288967202228161,0.47057964691931886,0.41053092614251874,0.3378301386472131,0.27077248575622637,0.21750464391942037,0.198037285439141,0.24575431271892656,0.3436098214166954,0.4399385994489604,0.5251997416322336,0.6132290269801706,0.6713227781189639,0.6940911899611848,0.6958048547316658,0.7086484673840987,0.7135753368816502,0.7192680450361877,0.7222693066913868,0.7298117590158322,0.7251880522993144,0.6911063229507901,0.6550428911776578,0.6013747121343709,0.6280011634749778,0.7118809128018526,0.7374206443035298,0.7558646985672173,0.7462008912252687,0.6699790539520469,0.5356600988594167,0.3955136645577282,0.25657414342049556,0.13364450141689854,0.16685981771133518,0.29283632708880436,0.43674340113121435,0.5792750742352135,0.7086217800042887,0.690833390375853,0.6459763772594656,0.6088909127235231,0.5615244144978417,0.5121159877351529,0.45067201963595416,0.3812794197495011,0.30928075090871143,0.26162485308138095,0.2651030257182114,0.33128406384459463,0.4120959270358986,0.5040932953280954,0.5882457012577254,0.644777087651744,0.6750595534649699,0.6944645991472225,0.6953225710883713,0.6824693500612762,0.6689578401358292,0.6561437654981646,0.6425388105219207,0.6422362813381985,0.6390577630245673,0.603015755156858,0.5746307521031051,0.5465815851801272,0.5946858713561491,0.6739702125776379,0.7081853546279833,0.7186549515189613,0.6553605980613275,0.5187322811756268,0.3785953066773162,0.22110946265838383,0.08130427660307804,0.021134512482356538,0.10641031395871448,0.23335233947972478,0.33779843332439974,0.4816164482698726,0.6178683527577826,0.6266700498491762,0.6125225186673404,0.5803105180009256,0.5337600410065466,0.4837260967964454,0.42038555308323744,0.35343165800752896,0.2849697098923132,0.22514478270635996,0.23702282241322115,0.31120966353910884,0.4016358506544906,0.4848831605662349,0.5586427611369711,0.6087888773220449,0.6280563708702855,0.6418506316869097,0.6328964539625721,0.6342686587077555,0.6265829492091148,0.6239362797513159,0.6184999098439965,0.6372600864444031,0.6645386233709347,0.6672259736461799,0.6370635322602478,0.5932868350026235,0.5455025854844298,0.5150489003911893,0.5632565393554838,0.6335812760928139,No
0.8226427070787836,0.8519323397551002,0.830763891755848,0.7419482985668346,0.6413096571607411,0.537874388593568,0.4361748039723832,0.44170315869266474,0.5450226781058052,0.6432253549969875,0.7511932043138558,0.8320985421246796,0.837078104987413,0.8344852603964372,0.8183446963048913,0.7675078931555372,0.721484628882866,0.7123312691234447,0.7434043805324206,0.7335957608016663,0.7116305802656209,0.6984970088131366,0.7178356176643201,0.7654704434357669,0.8352975341166573,0.8981743452632651,0.9187306955838497,0.9262579528089567,0.9381821731568967,0.9503604023278545,0.955251989445733,0.9527649832426173,0.9271541231317832,0.8860917010327816,0.8364266503511053,0.7943323284416683,0.8014004153762215,0.8460459830469644,0.8957063422816542,0.9433659922229558,0.9830615460915739,0.9892285895037323,0.979288404739119,0.9966601092978618,1.0,0.9144148366274303,0.8112975798409989,0.7114538177011478,0.6057657272698966,0.5238019908862217,0.5770161016391788,0.6847041091423427,0.783211522335288,0.8824314899450507,0.9560795768543482,0.9525867859872861,0.9352085449694822,0.9163008126403,0.869286301109129,0.820059462594803,0.8220608086647716,0.8711414726671332,0.9009070221786288,0.9036934232134262,0.9042788053677571,0.9171710709511522,0.9328460541842438,0.931581706206924,0.9289171820818023,0.9152979903702403,0.898266117881517,0.8933365865256371,0.8936748092989739,0.8955524809808852,0.8988621983762486,0.8842340339379637,0.8610352523399452,0.8297997197755373,0.8043602547410011,0.8208889999991937,0.8597570524065423,0.8956967023377751,0.9232975091600215,0.9286920839581563,0.951210775137628,0.9598156685196946,0.9761484541857324,0.9125080169892987,0.8159322141149192,0.7088704183499002,0.6106204983389825,0.5019052796963215,0.4407578126021412,0.5213087974025767,0.6196170112982542,0.7275630305443705,0.8110380958209022,0.8919203406712723,0.9438838514760595,0.9388774950229837,0.940882090148083,0.932273494111235,0.8793589930799519,0.8493938967810908,0.8874214841041153,0.9436085145499713,0.9714233496121794,0.985501874248583,0.9837967098769869,0.9643523820399325,0.9305274271195585,0.8918451973948378,0.8806787211233313,0.9090232220423378,0.8995895784480088,0.8745140396735844,0.8795321674506766,0.872507768338699,0.8827190200054851,0.8512622259964111,0.8259766648419542,0.8140167762039305,0.8178087865191714,0.8285259086187278,0.8456863087249689,0.8398752117497721,0.8154736892970074,0.8344299390911285,0.8762045183492417,0.9138003498799012,0.9359639156460662,0.9342507774486442,0.9164585365447584,0.8699786879239424,0.8151013164700402,0.7853331959310443,0.8090478361444111,0.8521966174418112,0.8824495996268205,0.8894114376863205,0.852910272377029,0.7592647356045537,0.6590310383893208,0.5488062541092047,0.4486478044335289,0.3430190519625813,0.23448274255284485,0.13687483443561543,0.05843653512799296,0.08229339781409628,0.17396714043192407,0.27381527943458117,0.37867347420989717,0.48981346225085254,0.6010236528808166,0.7121572646319425,0.816174299667968,0.8869465064358009,0.8956668656819331,0.8817382625827994,0.8640404381216573,0.8383909037292128,0.8023935939719644,0.7663571477039373,0.750681789971372,0.7642928947747678,0.798667765378406,0.8292057556008059,0.8430529615490845,0.8399292630518205,0.8435247345789385,0.8352317084085801,0.846464349814473,0.8616797039262813,0.8766971292762982,0.8795377155364457,0.8730112883809213,0.8580554826767752,0.8536846270422092,0.845875006233733,0.833134708207814,0.7848550512142141,0.7486396519841634,0.7617537483829273,0.8054726975772737,0.8601988539739085,0.88819416020152,0.8872438504008269,0.81846102759545,0.7189321563557312,0.6178917628643767,0.5113813261423368,0.4121682889716878,0.30189630766257025,0.198184648710793,0.10788249543371942,0.09726063340130775,0.18015697622931848,0.28355826083416336,0.3946542269695459,0.5058394032178337,0.6125451522947176,0.7118325434695745,0.8207721887921622,0.9054747078672758,0.9207750642288746,0.930360008206732,0.9266042219112833,0.889781956605229,0.8447648257216342,0.7984565362934934,0.7516571450125356,0.733669507123976,0.7527195733495904,0.7947681771134913,0.8433399124017433,0.8861033599749195,0.9018323086625766,0.9029784127223031,0.8923930446740163,0.8768938013859411,0.8651131370213774,0.8644671831226458,0.8210430383507412,0.7532419330530153,0.6943562452350025,0.6552142021663476,0.6465858591316143,0.6595692770374257,0.6789858663236719,0.6798250804405419,0.647600533017568,0.6569053607836342,0.7026352874333419,0.7512048561143065,0.7776814546304616,0.779404563347792,0.7399585039348335,0.6661772843000531,0.5739450629282796,0.4742991257741984,0.36460176490982743,0.2655578157895615,0.15846068789804058,0.05056985571651973,0.0,0.0654509340975884,0.16227661976576968,0.26758536522960563,0.36679055333382626,0.47690323009527447,0.5784192344998216,0.6821830168324166,0.7696888829199056,0.7778475803538591,No
0.9177529878507145,0.9243692071223137,0.8737648272576741,0.7913813664550362,0.6995126080730902,0.6049271785363401,0.5003120927923537,0.44601243593174056,0.5289100630959749,0.6340683881669367,0.7324021640071783,0.8358279222167144,0.9201606533287972,0.9941853086707908,0.9999999999999998,0.9569712169931279,0.9397061347061524,0.8925995288993829,0.901589969518459,0.9228088734712199,0.9310952724594308,0.9233926137964537,0.9154435158754282,0.8912390742433824,0.889597809868689,0.868729198385086,0.8243509553227988,0.811346484056777,0.830512749031034,0.8647413713552765,0.8758222085398086,0.8811264333307107,0.8984932459805826,0.9063036170512799,0.8578580003037188,0.7723248337849846,0.6799060412066209,0.5859487276579087,0.49226687702943184,0.4819181033198259,0.5795240419290071,0.6788553952933698,0.7814998432264899,0.8781622146322714,0.9419533032561482,0.9074085779347321,0.865840781846489,0.8341363737202052,0.8307769892216574,0.8501529032218544,0.8509629826880423,0.8613396173478025,0.8659145301954558,0.8598788583008454,0.8514653878678866,0.8347160237033273,0.803310768515791,0.7527726204177336,0.7418507676699819,0.7853040753564502,0.8233042325601214,0.8340770411781635,0.8484670194372261,0.8581396777192813,0.85413930730121,0.7972385267551567,0.7114861379251158,0.6248549252127182,0.5345502554908708,0.4964817128613088,0.5844559914325611,0.682286144689179,0.7814800593115241,0.8723495044876082,0.8813384770320132,0.8294984248597845,0.7942715502913209,0.7806840877468881,0.7879843730286475,0.8117453510264714,0.8161001719202716,0.833055350692512,0.8421234570561438,0.832856798439005,0.8062239506564179,0.7838287891988236,0.7437992229955566,0.7261129841608731,0.767410474470984,0.8139434515406718,0.8310054238882969,0.830639605718748,0.8450122522878101,0.8263722503304247,0.7649371692907068,0.6810945081727573,0.5882090201692116,0.5022410250650651,0.43874729040630966,0.49833386426593074,0.6010396543600807,0.7003355846921016,0.7997866636681004,0.8815559527422183,0.8637793627486092,0.7901399530311826,0.7736003570563612,0.7466382781398047,0.7594757534769092,0.7917321941040163,0.8091930139641772,0.8290664837616435,0.831970787688536,0.8289112894117292,0.8250178225629428,0.8182067052533413,0.7718830489420931,0.7527606857794933,0.7457948291322174,0.7018130427276577,0.7127755490710206,0.7562923817062022,0.7647735674861453,0.7605427225226606,0.7633437611862777,0.7499852220792358,0.7472416890374849,0.7166338418254379,0.690860757336561,0.6961402948668607,0.7188559305163247,0.7371020112459157,0.6671219996987723,0.5599137995529022,0.4521425595808326,0.34940033571564855,0.24919490172161596,0.14248469951494092,0.04600107612027626,0.0,0.06870234820443799,0.17025447579582376,0.27301520508628374,0.37307049241211954,0.4763402759636357,0.5748979826353853,0.6692542825270722,0.7469174822441225,0.7726477710740431,0.7791247904372527,0.7749975010988586,0.7357596701053828,0.6887516201771227,0.6651335082051737,0.6990631673628538,0.7409167802221848,0.7559373855131211,0.7550382241182712,0.7673009430670474,0.7626300867403948,0.7527780232180634,0.733537690910161,0.7218626719155845,0.744832535719006,0.777711492378738,0.7754676905579336,0.6891270475318174,0.589674211421152,0.4869923780854557,0.3792227658791887,0.271437889758962,0.16884283907345576,0.09625041964753778,0.1301588493702972,0.2249736821795545,0.32936793361199546,0.42779756681109804,0.5312168046422199,0.6210559323630085,0.7116758511794583,0.7805363008720938,0.7962116729150248,0.7888355634305106,0.7776134867713591,0.7401160692315074,0.6934974217469765,0.6751574901249151,0.7080793955335147,0.757789718051711,0.7916062205250636,0.7822629307803541,0.7916834574507383,0.7984947168148129,0.7914718914694292,0.7988507714654725,0.7826528250359919,0.7758158365753711,0.8068463116391633,0.8361146557691057,0.7874602710686636,0.6863664790597392,0.5881276954592389,0.4827429945558932,0.3795747916056669,0.2797410620421088,0.1723727454859203,0.07046790849801532,0.0003637311937729759,0.04647204442989761,0.14295715795541075,0.24732349784034713,0.34898749790588646,0.4501866284832494,0.5574278956825196,0.655664524419614,0.7449870051489291,0.8235579328182834,0.8448556255108628,0.8339439662027608,0.8241986223479645,0.8141751588971717,0.7815159629235839,0.7399222973918504,0.7386274323403097,0.7910146994045306,0.8246362964089704,0.8312903957690982,0.8481213401851015,0.8673252308388346,0.866630843652967,0.8695773836881149,0.8581061177616698,0.8327712504419404,0.8674498525157317,0.8983734925620899,0.9034843702335877,0.8482509860032412,0.7505274665981234,0.6462423363188472,0.5477125988656744,0.44074367773588774,0.3345989232491091,0.23646872076512526,0.13180619583283848,0.057677209037341415,0.10016911570190268,0.2006759156331126,0.3001467760518497,0.4072248303498329,0.5073463048643749,0.6059532575053059,0.6993091171537291,0.7903341637738965,0.8565930650808664,0.8499573171482011,No
0.9386220621044705,0.9268405646346474,0.8881226261804898,0.8359996749090026,0.7415677455265732,0.6499854514227752,0.6972842624160966,0.810519636104444,0.9155524433273219,0.9679897459779689,0.9859095988789512,0.9861166235293264,0.9657086354216511,0.9709632954066003,0.9866988821619604,0.9474741923674936,0.8549323270269462,0.7633579220050355,0.7716573345605764,0.7927683813907462,0.8167563451070174,0.8369696621223319,0.8377856806053892,0.8539858346903144,0.8536399142189803,0.8321609586026928,0.8071707753777941,0.7876809642852418,0.7478056373050306,0.69709664530362,0.6308884799490371,0.5888224131978341,0.6198927205881462,0.6758844589204478,0.7143171061245859,0.7309127204672721,0.7417248606053297,0.7570412052036941,0.7313647449662928,0.6973142237897734,0.6304019087741919,0.5273476936639643,0.4995175809106511,0.607769505468565,0.7041643798335442,0.7367190227939204,0.743679678873495,0.736213843147338,0.7167985222455311,0.6863392882296804,0.7124157755817984,0.7453961428434428,0.7525150560447176,0.7494265885199543,0.7396940864584645,0.7521582676221268,0.7678006988599759,0.7906385377981571,0.8064486031813711,0.8117462353675853,0.8103463137915026,0.7790592090443287,0.7108197302426138,0.6414368415583538,0.6053030141505062,0.6432568437508395,0.6972480635764282,0.7430105968640697,0.7894067979508841,0.8312309265916125,0.8703381921680879,0.9003116112016345,0.8959823814386842,0.8284414493355476,0.7412554983954651,0.6418509886853294,0.6692380595832761,0.7799583996498054,0.8901958547690869,0.9807450442341823,0.9869415733774125,0.9881501021875625,0.9853853691152334,0.9750970671462063,0.9704562897349591,0.997971782482951,0.9822715998453893,1.0,0.992313015235768,0.9878267206333962,0.9758462045117731,0.9779678765964372,0.9735829253025008,0.9680271271237926,0.9477488287799778,0.9306840076529985,0.9039915871291542,0.8402896267591196,0.783552698707001,0.7448020038957393,0.7711961161386607,0.8229505307793454,0.8541543824875966,0.8809797151707346,0.8797957165656056,0.8809601732175953,0.9093253404906907,0.8920013015041159,0.8295106978269127,0.7349917575783489,0.6617439554445745,0.7332396908574874,0.8357905666363279,0.9131464337935737,0.8835762320036884,0.8073870999646555,0.7070787578462121,0.6096249613564226,0.49616863864282656,0.3716254361823932,0.2777736749111912,0.24406371371593583,0.3074610992057667,0.422831439658947,0.5329745072478156,0.6427066810373168,0.747662266610654,0.8111267474602402,0.8009358548347767,0.797477715423188,0.78481652166287,0.7669525538550537,0.7203804428624903,0.6788487651878512,0.6722301496244167,0.6956908352201063,0.7487766516220149,0.8073050190589588,0.8438209501402363,0.8721092128403694,0.8922897550065239,0.8755051778754734,0.8944924944383619,0.9072883508879666,0.9028228024143803,0.9106036160528439,0.9132702740520524,0.9155226702494992,0.8922100640525343,0.8710097888116737,0.8572088404453995,0.9050867137372975,0.9134617054957466,0.9177588383541355,0.8752373813440886,0.7714067404481,0.6610221465342967,0.5400610964468697,0.4304056174678901,0.32136393952141296,0.23339026033949795,0.26458792733126124,0.3678541707911682,0.48810094907170276,0.5995454526766872,0.714654014978799,0.801235749282871,0.8115338380414787,0.7847645182985801,0.7380432193707982,0.6984204378017411,0.649106960204537,0.6019487523156655,0.5460766780380015,0.5018826093120263,0.5218239538501956,0.5871515069237452,0.6613098281877687,0.7192226292544728,0.7414500756987326,0.72574291681972,0.7134726611149413,0.7004116658394852,0.6762435349229974,0.6723047729430078,0.6675905434348026,0.6714177799979439,0.6597183679136069,0.6625408071556294,0.6476264192594487,0.612549685742934,0.5849220280264711,0.6280385707376426,0.6611604786443857,0.6561301836155176,0.6429115541891637,0.5570495464251399,0.4363762323157587,0.32577136650564764,0.2035375353230653,0.09306330755596903,0.0,0.029280625626553203,0.1383916673669563,0.24920639921776333,0.36687069113222304,0.47635091542259467,0.5802530095992022,0.6451676107010869,0.6651899190992725,0.6561085572635745,0.6458460414489156,0.6255383486232908,0.5665343984729501,0.5126935955188134,0.501712060678214,0.5412366212011781,0.600116699012422,0.6688719229497768,0.7098958668180915,0.7440148270205906,0.7651013459058147,0.7746996914088475,0.7553173630423338,0.7356115258907878,0.7515174179832131,0.7383425914501593,0.7167307035871633,0.6932972091404213,0.6571595994651478,0.6985123778762796,0.8034485374602216,0.8989128173789256,0.9172879384417865,0.8740063171138637,0.8578631429875343,0.9009074176794027,0.9118421933986398,0.9016723419887551,0.8719696275106457,0.7782942674891178,0.6607711849493016,0.5495042549428977,0.4313405632921725,0.3194252811447571,0.21018690684831176,0.15109510282785665,0.2187176084973288,0.3378304874512432,0.46310217164245326,0.5799687443406478,0.6900753822497632,0.7849098000569348,0.8278293191658368,0.8427025721254817,No
0.6647495922008098,0.7144551273949453,0.7343181109666803,0.7419684567520912,0.784385668468258,0.8143542773784569,0.7680857973266875,0.7995480441896969,0.7619935916225185,0.6195808238472953,0.5339778750346946,0.7089360092089265,0.8800983774601638,0.8991262638983271,0.7884395635051531,0.7101470327261135,0.7042314585167428,0.6633083933455621,0.5771452960972523,0.6104100046385339,0.6928946685869377,0.6912625101354344,0.7258339082168472,0.707440858549953,0.7034738991047211,0.6833680723997979,0.6908427579512431,0.6907574035640298,0.6756538968865744,0.6951702186160151,0.6942462037263866,0.7309432893775121,0.7451243716851499,0.7712109118123545,0.8011250643162784,0.7877898802728609,0.7494205498886366,0.6771840639092543,0.5880658620983521,0.453713995337913,0.34296542720865997,0.28423259102543597,0.3896025179890392,0.5061584335051208,0.6028387305024197,0.678790756207869,0.7311953002059299,0.7663551665719837,0.7848406276877107,0.76825718465025,0.7615606546223566,0.7398421464985114,0.7509027997002402,0.8648992637747996,0.9110686693868226,0.783047903003598,0.647848539902597,0.7306409561509932,0.9094230446231633,0.952331540000726,0.8126725533817716,0.7445432225058122,0.6921573585189158,0.6872222076097598,0.6331081192499344,0.593768737161307,0.6493049088654939,0.6887356960351978,0.7040711587829751,0.6792505095162307,0.6652333727104551,0.6733466443557337,0.675450957876305,0.6847291503736006,0.6902457896400733,0.7022207509857834,0.6966960561420574,0.7495420778951676,0.7627931995226591,0.7353762870100118,0.7029672144447812,0.648748261436495,0.5472631424666403,0.43419618923588565,0.2935066026455919,0.2142556486831877,0.30043162851422966,0.4201952936011786,0.5277628450694571,0.5971487433050493,0.6612568433981094,0.7016674252587114,0.7508652751976843,0.7396551918600087,0.7068367810539176,0.7296793420425276,0.7898572879469556,0.8841279205993713,0.8223929674257633,0.6678004080290494,0.6896871894910337,0.8654833166312219,1.0,0.9433575774143845,0.8807637176931102,0.8467166520002696,0.8239572089884799,0.789709662389984,0.7359721451984136,0.773618092106676,0.7539330423045545,0.7637929266794545,0.7568783650333044,0.7305943089598586,0.73163667277458,0.7408402385033774,0.7286181398337579,0.7286950703760322,0.7291835967115494,0.7405414599409896,0.7099116380819481,0.6890994997817446,0.6883281083547157,0.6804620578281018,0.6194101294841561,0.520863958458949,0.5387571875190869,0.5538207374310904,0.5507246160720554,0.5685724536165147,0.5576897480423231,0.5464641494660665,0.5534706773747793,0.5961187998294282,0.598599936754912,0.5864628941488208,0.6150042272841096,0.626513277554694,0.6123944155802716,0.6265865593893531,0.5670765780606031,0.5517319273671308,0.6430855628743224,0.6649344088433198,0.6894498435276786,0.7199798265529855,0.6564506148819875,0.4812161916713871,0.2755099687576248,0.1123668857441924,0.08985662596062127,0.24245940025000845,0.4247406743334965,0.6011441214736735,0.6171497126342569,0.5876956081344442,0.5523860981187214,0.5555076917107584,0.5482093739343972,0.5840446551829883,0.5813185168825274,0.5159478044999783,0.4597689323378784,0.38369980932835634,0.2796249925529759,0.15658836632165052,0.038778166399126235,0.070387323219407,0.14034739514873795,0.2856534280285894,0.4232796639648386,0.509375516249527,0.5735569311331314,0.6073224292827133,0.6048395085061742,0.5591684819763847,0.554824547444837,0.5465437429375557,0.5549631874847387,0.5321428620964745,0.5372826650145441,0.5491650893822237,0.534030120388449,0.5531194062543792,0.5657459561224085,0.5313957590178262,0.4800556451126141,0.4560992093967018,0.4466394421693698,0.5290414023660119,0.5172337758615262,0.4767364885564751,0.5804666344198246,0.5909594049350719,0.4531952401162771,0.24956610272337443,0.07981233724428094,0.04418398613957919,0.18085377600285746,0.36913008373953016,0.5585176748718021,0.6170513429868354,0.5731852775244706,0.5879700042745419,0.61348758715088,0.6444200384081293,0.6265125171884174,0.5698898518183819,0.503269879633514,0.40972907358512956,0.30532867943612985,0.17943613906034894,0.11237624588608064,0.15666077508763454,0.2676113938073046,0.39988474543708197,0.5223156728577827,0.579300994494778,0.6383856971914792,0.6305977865889547,0.625170980813806,0.5987386764197211,0.5656829196685269,0.5475968738781418,0.5588428830054664,0.5105705604155233,0.529047189873971,0.5623293896153347,0.5462090304812781,0.567165312837826,0.5682871257680553,0.5374160711009903,0.5152613728117696,0.46770028368381666,0.43502228570314205,0.4733198098437157,0.5526857037597983,0.5841839684377454,0.5796721720769185,0.6023804104030059,0.5138394061993834,0.32668737807844206,0.13784032984715022,0.0,0.07259421860501458,0.26521278630607625,0.4567681130127381,0.6065256365012566,0.6026871001865741,0.5871234746685188,0.6299887750068356,0.5998258023718837,0.580095182829087,0.5771946720573871,0.5326053441572665,No
0.9547832779182306,0.9226731866427915,0.9109815672249044,0.8622848278547015,0.8619613460890045,0.8984518237511847,0.9173354699540934,0.9254125169070098,0.926470974736946,0.925147656734584,0.925794160789994,0.9122638085634365,0.8568031215990417,0.8179462099226149,0.8082469750427994,0.8039511115020304,0.7964562675859681,0.784667186229739,0.7605542576584257,0.7143493676792456,0.6704223253413031,0.6797090632073259,0.7220036037459701,0.7603814860013349,0.7852403437228119,0.8034786153045563,0.828597709431639,0.8197474476021331,0.7713764867272257,0.6984036084954561,0.594180732187898,0.4869854420345616,0.3910752815759957,0.352398755760468,0.4392642503894888,0.5451614341453634,0.6429916561925673,0.7410611057456111,0.8326821919074918,0.8996070756333814,0.8867747103652057,0.8615856756439939,0.8402990983736225,0.7998554430076128,0.8259260541492286,0.8677115929454904,0.8945323386640651,0.9256253019910674,0.9425436292368117,0.9627597269838222,0.9865644263249993,0.9802536297535984,0.9834279472942806,0.9637056809436517,0.9510332819861453,0.9411186805355083,0.9225091230344953,0.8837380304098557,0.8277943079108421,0.7808246680973157,0.7846571741637232,0.8216444725972623,0.8516239515465105,0.8704989219303605,0.8922950561739413,0.890761612754809,0.8663067392844028,0.8062245549404605,0.7262938182557024,0.6307621357753805,0.5258619154363391,0.4275410178051535,0.3207117448361143,0.28642483043517064,0.3799588631003039,0.4781539147762248,0.5842018531345832,0.6824987858748646,0.7630867881282519,0.8585618537143098,0.9325346900481879,0.9238037840764663,0.8878563946600035,0.8642544502861833,0.8131092940527007,0.7986415612529947,0.8340413719077855,0.8540953737382608,0.857108371108585,0.8583297926151205,0.8551752176953284,0.8675715328708322,0.8797676646357391,0.8876212841869089,0.8922703270759724,0.8723084317864189,0.877191599036331,0.8734684663538297,0.8448294797827591,0.7929325364264863,0.7525342685886938,0.778849064065624,0.8199377527805605,0.8594853176142738,0.8860822783057061,0.9125956623482674,0.9289622085266394,0.9277691721675496,0.8902267021414056,0.81519238741503,0.723087582429514,0.6247571639607559,0.5227954721284966,0.4212549276645716,0.41300963500343046,0.5045255422084747,0.6078766968915357,0.7176705013585742,0.8217829233616434,0.9175154454509911,0.9906844814366256,1.0,0.9800096975027475,0.9483673002582158,0.9355264680186166,0.891358783933665,0.7969596626770645,0.6986131069670272,0.6004752305961585,0.4960465331390149,0.39714181559556305,0.2916188720063131,0.19324806769767378,0.0906744184172481,0.0686708536161631,0.14731335306932647,0.25211627893583,0.3499462738589383,0.45708551832120436,0.5604442239730361,0.6603123588125608,0.7563355542239645,0.8387035834866858,0.8763385504787755,0.8632465343138866,0.8376192911216713,0.8128077932563094,0.7673009848627208,0.7272738156778722,0.6954597289818585,0.7129683688023869,0.7607693464998313,0.8117452022255098,0.8277144203401106,0.819405866697474,0.8339873140050846,0.8419263081776895,0.8284770642419881,0.8097448426293359,0.8052369983252512,0.8023241580985467,0.8108562810910778,0.8025265220877102,0.7892861656117431,0.751429975046511,0.726271431573474,0.763739285690685,0.8182162016353498,0.8381222512632056,0.8368256668628997,0.7553317202128134,0.6562156056486166,0.5587360194489044,0.4518462789998119,0.3527207162744883,0.24758504188832164,0.13914178841583968,0.04476383459795863,0.0,0.061286261453386226,0.16187988846900403,0.25951551823409424,0.36650857644446067,0.45678784916600623,0.5390962646010222,0.635493251845276,0.7343528040814622,0.8122256194314956,0.8443105628273657,0.833999840899843,0.8202797588439776,0.7905480831212222,0.7550948726240203,0.7223012250953453,0.7352508156330471,0.7825633184942822,0.8453660428472682,0.8762913357852189,0.8914332530459075,0.8975468348646718,0.9118809626782776,0.9256858428614239,0.9196330832867541,0.8966817111082728,0.8767904744534167,0.8472591995044714,0.8160154140706246,0.7767761709557712,0.7365471942426125,0.75606591768187,0.8037093211487281,0.8170589484574937,0.7972805384020494,0.7085283358635368,0.6101316738852902,0.5083629937358483,0.40738487203135065,0.308219199540376,0.21180788758211921,0.12618493931005048,0.13156626162583107,0.22218495905981195,0.3246405407682289,0.42284645803881515,0.5266957556866658,0.6238070659796522,0.7138090855144226,0.7657694365045864,0.7659384939513769,0.74800931877098,0.7254071904583443,0.6884585575734965,0.6463882710564368,0.6111665176846666,0.6184339729317783,0.6627187297703911,0.7095570626069683,0.7372569850717463,0.7449799989567629,0.7469472421312946,0.7563566684404641,0.76457909923373,0.7903078472123575,0.8454375122598741,0.8729839919061169,0.8771508607071419,0.8739557272560807,0.8681805218236303,0.8524983660775987,0.812737116053055,0.7889322839403681,0.8269671233127371,0.8722231070562168,0.8744505145628865,0.873104597288688,No
0.8042025192249975,0.8337852395298053,0.8340538618678008,0.8314235757418305,0.8317854936678726,0.8404248873058433,0.8432465662914959,0.8459134809009983,0.8250054622891805,0.7896506008971149,0.7568514222933407,0.7530708246625,0.7820052903910992,0.8167889514922437,0.8433337422678766,0.8693499966781382,0.8934147667849397,0.9316071953654459,0.9830407270325165,0.9685985221345608,0.8876425203956078,0.7913359292311937,0.6902627778471506,0.5823467970281528,0.47521601931127333,0.40235299088970433,0.4619392298227194,0.5682473441441542,0.6645068923871549,0.7677564538853716,0.8637869187033631,0.9606232143291413,1.0000000000000002,0.9525292651937594,0.9199835046014757,0.8929376283734223,0.8498595717803161,0.799717388715276,0.8201718861183751,0.842597953159985,0.8469519792657081,0.8354333704346482,0.8296293911400852,0.8172351776022684,0.8153131653417758,0.8223750058133568,0.8124632346030205,0.7852575490875491,0.7502264796183058,0.7402765642284199,0.7666941649729286,0.7962313388333289,0.8295217713297578,0.8539381001326085,0.8729941808337471,0.9038685485320548,0.9474475442783905,0.9200479187347497,0.8353627634044007,0.7372053441082571,0.64082531029796,0.5374571843364369,0.4547869498590702,0.4900223848386196,0.5888085693461715,0.695149187700226,0.7907308643006103,0.8890917773061824,0.9622601011524139,0.9361251058241888,0.8912725161356982,0.8666750044599085,0.8380769966994712,0.7886135114628152,0.8020902542145845,0.8300982044271141,0.8410070023292244,0.8477505582676625,0.8457857619451008,0.843631699715157,0.836713413230364,0.8315186569028159,0.8366808759250224,0.8415851653685615,0.8304011532981728,0.7990495129859674,0.7639144380182323,0.7568286625575682,0.7873355379301443,0.8185340397357075,0.8385508246960234,0.8577368164917243,0.8816626497593048,0.913419201392389,0.9641048518458379,0.9552313289286778,0.8718460821425509,0.7772237939990478,0.6812678138356005,0.582615662725549,0.5052648778567581,0.5596206343986683,0.6619736058326382,0.7589225137767521,0.8589865025432857,0.9460011493928773,0.9565747843309678,0.9005025470868564,0.8742820295086908,0.8535534080450422,0.800976797646207,0.790883024403451,0.8272303306525994,0.8434742797345491,0.8478248406683309,0.8477919951387849,0.8420864495689939,0.8270025948389346,0.8155956642889233,0.8133898446396033,0.7827815396728093,0.771740616267621,0.7756653476279995,0.7835349162743095,0.7922108961962093,0.802559621626094,0.8068629286030446,0.7909278608181534,0.7659143037111555,0.7242917922781367,0.7302601960915436,0.7904719785425172,0.8246885819852554,0.8372505224943143,0.7941855086996645,0.6968821319239991,0.6012912531556733,0.4966560264073958,0.40037970234589193,0.29613224314104936,0.1924930211635758,0.10193044381124472,0.07704822018387114,0.1519193711793465,0.2464248588868918,0.3481738284950502,0.44199203986399405,0.5202897296108622,0.6227614364157847,0.7210276863054219,0.8173582972189355,0.8710673549927066,0.8492583368051136,0.8338445273358841,0.8124852382595569,0.7922186940892539,0.7662040064881677,0.7323067007038018,0.7044540534792347,0.6995555904780544,0.7306443104009037,0.7656039780653809,0.7881941193567206,0.7919569669272375,0.7919706792845458,0.7919706792845458,0.791992756748298,0.7960289077435727,0.8009433810801834,0.7841371075190129,0.758691470119716,0.7219584187473427,0.7379899069675104,0.7911655611192974,0.8249426049316468,0.8432978469235615,0.8248318015973937,0.7293744571400305,0.6485525994495351,0.560168282960156,0.45267290767642554,0.34465483404567876,0.2373956741834513,0.1408779507411817,0.04332737438932166,0.0,0.06288523413512115,0.15883097265082058,0.2599969675062097,0.36596172522013837,0.4615542280135576,0.5653624846785019,0.6609225133541525,0.7611843549545891,0.8488200609461007,0.8523251680399031,0.829390067223011,0.8068919349972743,0.7857538853801291,0.751279375053868,0.7198064942673448,0.6958720162740846,0.6868140805059346,0.7138083735822722,0.7494019129815686,0.7728430064447613,0.7755289749510956,0.7755358945775892,0.7757224778648972,0.7844180718372307,0.8009376912213029,0.7957409067256462,0.776138592006258,0.7468089157635556,0.7707350609490125,0.8302732554507288,0.8627412822314258,0.8762354447147771,0.8338248083170041,0.7412857501520353,0.6353529254646764,0.5366863374418698,0.435375413550102,0.32798385853123624,0.2306577379942214,0.12840938055712026,0.0361303755720499,0.007917326887295406,0.08583575590814285,0.18566016311927203,0.28927014782832194,0.38587387346633384,0.4929940828388777,0.5932121518191493,0.6920376241363047,0.7881033418426353,0.8796346005997784,0.8900095236286758,0.8509780488592711,0.8320705547854044,0.8065908919052462,0.7797121506179459,0.7424991480595804,0.7112544732312778,0.6971696653862904,0.7208509894873674,0.7562674452847953,0.7880539890915783,0.7919595241457709,0.7900120830751678,0.7776056408830072,0.7762919254889746,0.7872306821122528,0.7776981097702735,0.756378417442017,No
0.9777553264830423,0.9651171368091764,0.9446801376938996,0.9130394738827328,0.8741365324354498,0.8255060909740364,0.7590934050882623,0.7150882749440932,0.7363863056352933,0.7930304872172005,0.8474480574399486,0.887472237004826,0.9016854503689153,0.8960336302762528,0.8833572436409411,0.8776984009263658,0.8913278301252927,0.8582029137972185,0.7733169040591192,0.6795960000787555,0.5870745761283225,0.49460805202717517,0.42817083789245736,0.4940253910512371,0.5957683175514414,0.6888255179875713,0.7875650946109245,0.8483905275663626,0.8215273141367472,0.7923311344234698,0.7497172331210866,0.7035892436747042,0.7189999313371873,0.7407801766948607,0.7632682567964084,0.7751317743140504,0.7824900846659266,0.7839387396695396,0.7804922157325802,0.7762579764155768,0.767356416007529,0.7510013363259833,0.7671645250248436,0.7562003222244982,0.7106224189854322,0.655145610419231,0.6505920662808073,0.7071409228456245,0.7624428515895503,0.8197196325367127,0.8547247758082464,0.8814459700705155,0.8941687878588442,0.8865280234507773,0.8813292721471282,0.8670591739734135,0.895408862593549,0.9244835656186317,0.862267006699309,0.7844030902541907,0.6947864775165054,0.5971165042391828,0.5089423965359317,0.523355193647826,0.6123421103900488,0.7102218015319519,0.7997183033905577,0.8272549807626588,0.7875692274493289,0.7543966188437665,0.7079673034181713,0.660937651161406,0.6709172812661046,0.6861926629774768,0.6905492287176,0.681501615643348,0.6754893469740739,0.6498285653164853,0.6502822269007658,0.668289271223504,0.6722195734525183,0.6439362725295441,0.6170309630856565,0.5818629319052679,0.5304980227896603,0.4661435238803031,0.4267977186931142,0.4603767239019525,0.5188529629502143,0.5799708992708419,0.6417833376959743,0.6883742928968892,0.7296589622040475,0.7624152598498866,0.7882405459533539,0.8134208904539888,0.8420418195349588,0.8858477910285025,0.9420085015480819,0.9137499457015539,0.8257873348897664,0.7349835020759226,0.643126563044077,0.5786940095436222,0.6389534981272351,0.7378981761012293,0.8312861339758084,0.9218379226603919,0.9625802117769087,0.962080034754216,0.9731604103236251,0.9393009949367601,0.9589086016030561,0.9890299253598476,1.0000000000000002,0.9982006457696,0.9815662114889518,0.9351919525134649,0.9254772235028417,0.9351295697647954,0.9276283635181033,0.9088545441260096,0.8689855465375194,0.8530690228965148,0.8925947613511724,0.8903844273288308,0.8494348598537471,0.7658511410765396,0.6725076923448337,0.5736391768137727,0.48043861160614454,0.37980303854037567,0.28405289486326346,0.18656242045346305,0.08866315016262316,0.04179103249989602,0.10052588456761757,0.195112920042801,0.2982824260920167,0.3959140451302907,0.49157037741540566,0.5948289074567257,0.6953629239799948,0.7858384137174135,0.8184882349770393,0.7654643206424787,0.7395642525228692,0.7142723764027659,0.6965027089556057,0.66553397120435,0.6134310510084109,0.5640616529985862,0.5072176172960516,0.4435632065273112,0.3878871324662909,0.3567173396987846,0.38616618450161266,0.4452743581616232,0.49873558623659364,0.5415818706849735,0.5726009032133221,0.5941236816754836,0.6010827184973164,0.5806465805190355,0.5777040009451067,0.585198227259567,0.5968983437114963,0.5993488411170238,0.6162203765255614,0.5945791427561546,0.5858142923487633,0.5924609378463701,0.6506643711201072,0.7023376182798884,0.7344563591561377,0.7339529101044133,0.6504328848249668,0.5505779548637528,0.4573265654400165,0.3548859480272071,0.2513704998174997,0.14857195560657765,0.06480593489999964,0.0673813554713032,0.15449129107204929,0.2483621968616072,0.3508712197562367,0.44577118725954157,0.5441910810198636,0.6426565819369812,0.7354179193623793,0.7987462035471975,0.7883792647563472,0.795813074370088,0.8154661399231646,0.8084527095720382,0.7840043010464435,0.7447849547837777,0.701234351296623,0.6412755881612717,0.5834337938945449,0.5459692363552129,0.5709147464536584,0.6322631956382823,0.675322152035396,0.677853195161018,0.6888424785173528,0.6997788612561944,0.7079557944896309,0.702695150156871,0.7107418190098496,0.7055093019550067,0.7075811124728328,0.6964749560360894,0.6748078291304085,0.6517473182433318,0.6202883742162844,0.6378345270081238,0.6942286694328959,0.7301710810676079,0.7239350040367214,0.6596252434386842,0.5729151104321579,0.4764786120720339,0.3737998797095976,0.2799291448272301,0.1801435567062768,0.07712397579063324,0.0,0.032074671081973705,0.12926913927604633,0.222270430872332,0.3238369291548051,0.42465124428406864,0.5178341487522486,0.6151578022486464,0.7073371324484097,0.7945531159703039,0.8125208796696282,0.7893421049626153,0.8043934518064997,0.8228374988819274,0.8198606390316387,0.8141711696964966,0.7769593063454197,0.722563204921215,0.6696266076490571,0.6342391096113891,0.6576331301979581,0.7212843351654985,0.7752034182178178,0.8163329509907375,0.8602142643417954,0.8870239348112519,0.893431177720833,No
0.9017784939656517,0.897545094158454,0.8837985672326178,0.8836652881425655,0.8772332721795704,0.8432095432378004,0.7847467953450038,0.717470080146168,0.6884452561517573,0.7328958920480328,0.778351315934501,0.8264125026335174,0.8527698601811387,0.8588551914423839,0.8831966187080034,0.9275702260680609,0.9050548479907521,0.8111423557913775,0.7045880001533664,0.5918918775275186,0.48467533472553326,0.504514850581756,0.6181247495960736,0.7258747177762523,0.8347250092919851,0.8907241571309683,0.8577523060699517,0.8177165655245586,0.779730047004465,0.7326742775978126,0.7434472187960881,0.7765733776687207,0.8202857965491073,0.8692569059709854,0.9069891974676847,0.9006080876762304,0.8905338027442364,0.9021997912559807,0.8960330113767414,0.899570555255202,0.9004846807396811,0.8871969130858948,0.8654556869090397,0.825362331221021,0.7593436505010347,0.6930104625706055,0.6594568665129805,0.7060294376827452,0.7572635727834132,0.8036006939807843,0.830588906469869,0.8386808424659318,0.8653055360967832,0.9154212230412657,0.9769852299333519,0.9430840385863553,0.8436748032082462,0.7322852142357057,0.6254548925016055,0.5178867202360173,0.5060711619797074,0.590420199448614,0.6861032842489876,0.7960837151369957,0.8968689032047812,0.9291323384961139,0.8917167765365424,0.8579644355186002,0.8100894038593021,0.8137676084250636,0.8350035340585853,0.8524864045748988,0.8501418655740536,0.8605078548303071,0.8520479812387993,0.8537789961983995,0.8724452744873643,0.8917647868752128,0.8978429218851933,0.8981549261549624,0.8954372009584932,0.8608181833323783,0.8018025617681976,0.7352835817370122,0.684962950909171,0.7123540650245399,0.7691838062244938,0.8179224380794117,0.8588681208586046,0.888705847640543,0.9131565006310098,0.9273144114903835,0.9968274804517887,1.0,0.9261821607664498,0.823594083337639,0.7155813280130645,0.6039249659423676,0.52827805906559,0.5993215221990051,0.7106146067309913,0.8204166277469147,0.9254970415459898,0.9813589746507962,0.9415430344867954,0.9053360715524708,0.8600669307254241,0.8330036443163555,0.8567808609351291,0.8836639793347469,0.8849464752263803,0.8947959345004373,0.8876684060773421,0.8786024125764378,0.8877138158025493,0.8993513086218328,0.8993582776517273,0.892460364922897,0.8980773511788436,0.8552362840409895,0.8056247257956852,0.8238979340987234,0.8320623434216925,0.8306750003071084,0.827187866357411,0.8192701285918806,0.8134853885566753,0.8239507763418286,0.8227709068620719,0.8209174075636612,0.7886935827638819,0.7638290673223009,0.7841100997365174,0.8337143615410221,0.8560988554801061,0.8018868475984893,0.6915197430366362,0.582740363793318,0.4691906707989184,0.36074235559324963,0.24367621343426826,0.1372331010494543,0.03413809906897303,0.03559247103067742,0.1350633977854918,0.24707485773614435,0.35672739081020355,0.47314275465315836,0.579867793600366,0.6964452451956098,0.802808720227238,0.8902006941488465,0.8678428002917111,0.8387373963978035,0.8134190860328854,0.7928695858292163,0.7513403937776526,0.6933175122613395,0.6364873589930711,0.5979280251922505,0.6353699126458792,0.7001224290045927,0.7693851840169588,0.8193868931355217,0.818958301129098,0.8187076130570019,0.8134264089310506,0.8104697256190674,0.8000568163098287,0.785064132553567,0.7836225062760716,0.7848108084206853,0.7919981456980132,0.7711184024457891,0.7444597432664426,0.7244243111694115,0.7716846522513063,0.8209184995505985,0.833316427021086,0.797503211836144,0.6961754383635119,0.5817791471973606,0.4741484044304416,0.35537701592410276,0.2358159170619012,0.12298036895381959,0.06208677413410246,0.12248891506134552,0.22814165762827887,0.34557526958631346,0.4525075818281912,0.5676001089949314,0.6747282997857309,0.7855916931382363,0.8633530165532006,0.830670625256769,0.7980684524092099,0.7786683750736629,0.7616853550528591,0.7128113517962347,0.6659677357818263,0.6083284440881207,0.5767619948625935,0.617056833101675,0.6891616712090718,0.7590318144513786,0.7984218482713268,0.8092273228638569,0.8292690694249014,0.8377158870471093,0.8369270271748395,0.8403217488669008,0.8312252982688153,0.8334827982424349,0.8266006742898844,0.7800237406723509,0.7321286955622965,0.6966455429383882,0.6629841809881536,0.6505390250316432,0.7059791957216319,0.7528223191244976,0.7772364465957984,0.7221067667091563,0.6162651836438351,0.5021304196275853,0.39174052435567974,0.2803675675734647,0.17165580818209936,0.06318951033057552,0.0,0.0645211025545871,0.17653505447983475,0.28414921812203575,0.4003845375380912,0.5068466674821086,0.6169392684334354,0.7269954216081369,0.8224492053679437,0.8233903568599095,0.7997868693043282,0.7867831179635205,0.7837744605503394,0.7473462654092753,0.6930735969877557,0.6442438170426144,0.6035169859284619,0.634281645434275,0.703214720475863,0.7713718527606046,0.8156530747301729,0.8102454332446669,0.8252976395620824,0.823278356019356,0.8235594816796956,No
0.8671720702522565,0.803531731541574,0.7284675247510739,0.6523855249840964,0.6075428442382234,0.6551200943200421,0.7238795885892393,0.7876629494269203,0.8432917388381633,0.8786051153992194,0.8926616185754841,0.9198303375048487,0.9429640252945393,0.9671653336010699,0.9294616843277281,0.8277092669619166,0.7223575098137882,0.5990289973666356,0.4850775269861045,0.3623440397244897,0.3196922403348159,0.4231014870198604,0.5347283447201598,0.6338848490068734,0.7444020450973796,0.8630271488449099,0.962341665679749,0.9737442782625818,0.9382642150526546,0.9036270749366664,0.8631184285911537,0.8708005176575977,0.9032292520291532,0.9180163354450617,0.9188761707295479,0.9065155358939925,0.9009638863172627,0.8949823931286143,0.9062344400819229,0.8820177324043366,0.8819122229953784,0.9006766938540465,0.9039330991217698,0.894667458815241,0.9130524428869315,0.8977075736121463,0.8531125204284096,0.779940824124274,0.703925616269176,0.6277842871743862,0.6151375329428923,0.6765206071244618,0.7459792217892467,0.8133286108391196,0.8631891324263887,0.8885789339796575,0.9163737990397292,0.9376227098725765,0.9524584330187307,0.9280242257608458,0.8308855775598074,0.7190830255567326,0.604807793739834,0.48595803984393227,0.3842122253049909,0.43721553349099107,0.5619305144352986,0.6767367723266622,0.7972089452717599,0.9094876475613569,0.9969633043268771,0.9760743927797169,0.9437989904756443,0.907546212206245,0.8853067708866535,0.9025035688758156,0.9232672198380163,0.9244994783261444,0.9230473096627279,0.9022167848809342,0.8995476914125566,0.9021937044337953,0.8952249241995238,0.8962100067900507,0.9029972012727012,0.9157828151246039,0.9080257610980755,0.9037160927368761,0.878329421413417,0.8266671154529228,0.7604643173646588,0.6827850785741685,0.6002087806119714,0.602578339757466,0.6656724065525008,0.7409409684676818,0.8019159105156652,0.8483852287951086,0.8795168451043511,0.8946009303431359,0.9186232090461832,0.9385215912179832,0.9069981907403473,0.8168207436092749,0.7097700626997288,0.5878207328495324,0.4757930393492349,0.45769281353702773,0.5736417836341285,0.7008323650506494,0.8163086982502108,0.9272079767258266,1.0,0.9652880829187764,0.9318300545741343,0.8992386667586314,0.8818307928852205,0.899722153678995,0.9130584316384693,0.9212723508442724,0.9143863205177531,0.9259507876355171,0.911869164212654,0.868245054621223,0.8548986573936088,0.854014917470213,0.8527958617547764,0.8517928086868611,0.8364012798253571,0.8140678584066809,0.7992903582806887,0.8467796910455903,0.8764007721576204,0.8431421774919774,0.7394394771293151,0.6181275014869425,0.5038810403347185,0.38088286013314177,0.2663753586658304,0.1512147150404406,0.09442250634493154,0.16722901634058296,0.28905982116416107,0.40415667881678186,0.5268653405562618,0.652497320670943,0.7626664164697652,0.8499210907947186,0.8535193959681244,0.8472088884604845,0.8343524383447303,0.806490273861153,0.7660478872539236,0.7052974767247817,0.6375863691247274,0.5686928644662839,0.521023693553234,0.5392383755273129,0.6119748004188073,0.6907206395234531,0.7625159593280384,0.8180566031818088,0.840525165716242,0.8446761238701739,0.8467033301317919,0.8260339561921684,0.8318408258229733,0.8324226009766411,0.8316263204974224,0.8282844385547263,0.8486999247364793,0.861151281020271,0.8643535049038458,0.854110759463917,0.8274182833857053,0.8155115078532167,0.8495898569638101,0.880803071700957,0.8717101441686252,0.7765798479863095,0.6527189848397357,0.5372363006590026,0.41522844522923164,0.2971426381417235,0.17962778378521094,0.07185601170055378,0.04005996920264776,0.12715710792608492,0.2518490621719267,0.3796701032880838,0.5052181754801142,0.6187639745614049,0.7339915145425646,0.8333954542236803,0.8717001703418563,0.8615443059377954,0.8575887703466485,0.8305249567716091,0.8028125339328298,0.7525256731947176,0.6788783288067171,0.6089392531558064,0.5470127793204145,0.5369021222138475,0.5923884454940991,0.6740776477675832,0.7540765472458233,0.8122574274245902,0.8354223134667857,0.8267619883207367,0.8362002125456311,0.817608243232971,0.8222059233842849,0.8185163181787609,0.8351185342933114,0.837745677430255,0.8440449998712269,0.8449066987383036,0.8457175077222634,0.8553135361319328,0.8408905076910025,0.8134835662435522,0.7920705182097438,0.8238134494233229,0.8583736635688366,0.8613726358747198,0.781970780358912,0.6636457190470715,0.5461248692486649,0.4236149321363669,0.30861985859067875,0.18819750683351177,0.07499838423150296,0.0,0.05221242107005608,0.16263267164775375,0.2829137886135036,0.4106442865263351,0.5384676046170487,0.6632508350333723,0.7723011712964607,0.8644846952323588,0.8820186047080614,0.8617317682605603,0.840399268519251,0.8127603478257797,0.7733100442954908,0.7082008119547001,0.639174729635525,0.5723181316298755,0.5371518934391442,0.5678877246155065,0.6398002426949958,0.7176843317176269,0.7884013136155437,No
0.8917294711683494,0.8827417646351385,0.8801465994604505,0.8621814354362316,0.8540248417453227,0.8716631380283899,0.8644629602844396,0.8751756426490234,0.8857087532183048,0.8843221750695949,0.8752152302220249,0.8681780382650439,0.8175556118560738,0.7597344558220609,0.6990609079682102,0.6528224052758782,0.6630478326931746,0.7218019018739734,0.7629744454639442,0.7912768098190579,0.8192312916234537,0.851063058188859,0.8953658950843444,0.9619170159867476,1.0,0.9423537580134931,0.8574480963192732,0.7632565363475137,0.6701739443847679,0.5702135041130898,0.4704112131730114,0.37707494885850323,0.28664470444262924,0.31372327816858925,0.4128638558048612,0.5055530322913637,0.6067504405499458,0.7009870947564836,0.7932127204645769,0.8785294961476007,0.9032788970744381,0.8975077909533948,0.8811418711009624,0.8301876797639776,0.8149490238242514,0.8446138880071858,0.8555456013931302,0.8484237424023782,0.8510110984448436,0.8478155807631689,0.8303640304218685,0.824156386604201,0.8346888207226155,0.8336341363338056,0.8393351198494807,0.860430536334523,0.8507835632413374,0.8643702953801697,0.8711426890021783,0.8994885407341049,0.8871182443817438,0.8800285041427713,0.8866656606363668,0.8807825730033882,0.8457862798579017,0.7906534823893834,0.733766393487771,0.6807414181059945,0.6619834043070343,0.6951926425733466,0.7530622173383898,0.7916764653590254,0.8256245025431586,0.8501632058716893,0.86378268611697,0.8967359107539754,0.9577242160437129,0.9986824067890998,0.9493977046981072,0.8604830896337106,0.7698177519028375,0.6715821206450023,0.5716170345260947,0.4783930403841907,0.37919118746026803,0.36131581381554567,0.4477818799418092,0.544715400905976,0.6443025356736354,0.7372475224795427,0.8256857363337016,0.8935400796662396,0.9171047384261466,0.9040429978149156,0.8971564886937013,0.8475741538921291,0.8460345811963128,0.8575043849693982,0.882501322780429,0.8900437360440203,0.8801643083487409,0.8775866833868626,0.886427044564118,0.8668707190503939,0.8643367436916076,0.8726666601655051,0.8470931572480564,0.8335056973842576,0.845501569051109,0.8383764488213483,0.8594825590139741,0.8609136497254544,0.8592037492026039,0.8478251436994251,0.8167315395918733,0.7648894079313093,0.7119680046053274,0.6400020680413343,0.6154097451641332,0.664034929897932,0.687892254568391,0.6725777769251033,0.6089436837216757,0.5253728010790115,0.4419709629281783,0.43084653528971817,0.49048404121842726,0.551538162333622,0.5886505685596344,0.6545419218292352,0.7135347258466771,0.7592828714901967,0.789748497985717,0.7811182406111197,0.7946393789253214,0.7923912123352972,0.7825632874460577,0.780958734457057,0.7871389428041282,0.7806931986846304,0.7943494190751559,0.802690819222426,0.8118426241368701,0.812478035610475,0.8135422991474894,0.8125115051089336,0.8121931218555964,0.8149876462283365,0.8147881156770711,0.787904813366568,0.7709019594854691,0.780534125997089,0.8311253306884678,0.848578601103505,0.8477783928779838,0.7905047463952979,0.6997145947544099,0.6026067772052697,0.5074405149214418,0.4094338220905771,0.31532101729221385,0.2214577031720053,0.1254643835942939,0.06739069812049081,0.11552129968320779,0.213481150214633,0.30624039329622543,0.40720570402872625,0.5105026024229415,0.6137305888421674,0.7114725236729567,0.8054030469486211,0.8869246266288506,0.871530569149785,0.8270992711209257,0.8024782579247445,0.7837734245119661,0.7487844481197059,0.7423853404827963,0.7059651239353708,0.6535191484378569,0.6057446142179628,0.6005682161633623,0.621991351600919,0.6824914606839627,0.7421528802860009,0.7947643240081232,0.8332689189461608,0.8348868850457554,0.8178133426343925,0.8200274002954053,0.813191977672989,0.8084676767575227,0.7980620311626212,0.8057785801805872,0.78397838223052,0.773799666380889,0.7820990741012936,0.7706813856624817,0.7712703179561351,0.7798531127581447,0.788116001568703,0.7978238007943461,0.7998308201197459,0.7697770854826356,0.7493624526198475,0.7697989989956819,0.8245265287342254,0.8303255100273579,0.8043876551698137,0.8208491189101328,0.7570055378187162,0.6607356347796856,0.567984251949675,0.4659564474034059,0.36265443721229373,0.2601846970200934,0.16697307705292808,0.07031902849818006,0.0,0.03060719012754287,0.12517123662085838,0.21845282023643997,0.3207019574116341,0.4161391624820201,0.5133679744622683,0.6111283327735899,0.7059441324000617,0.8025450132532348,0.8835452868650759,0.8643489584589013,0.8163217871817521,0.770676464775129,0.7467607823722209,0.7316673764047081,0.721461299080135,0.679742080029262,0.6305058274821769,0.5885410776524633,0.59645825544463,0.6351338336207903,0.6980379121078255,0.7597359222750142,0.8115515294913664,0.8153021210716895,0.8254171852233383,0.8156338612549456,0.7984893696540998,0.7869285593950202,0.7973562677634924,0.7990849137151552,0.80070804758595,0.8239197881100231,0.8090547924872733,0.8352903159169207,No
0.8706723992202563,0.8654971188902367,0.8879861621297405,0.9097953947221349,0.9163588572881136,0.8899082984118163,0.8433772813409361,0.7669210064272756,0.6836127048628158,0.5991253644560706,0.5253009652677778,0.5311437271167176,0.5982301100032146,0.6745911427216074,0.749796047794157,0.8102527835420044,0.85106639954487,0.8822635130315284,0.904053089135104,0.9157562688691518,0.873849624313709,0.7763908826413961,0.6825895867724099,0.5734285786936546,0.452551623220101,0.36101254190663035,0.44132210315981846,0.5635495240538639,0.6842938534732821,0.8133817842177518,0.9278646452769475,1.0,0.9618880186892422,0.9373373819680872,0.91268596397718,0.8525863684356172,0.8566893726981681,0.8898562072947964,0.8984827171958334,0.8879558646220431,0.8787945286277794,0.8726174146091958,0.8720396426043191,0.8599910288522374,0.8499327919572357,0.8700897773010512,0.8957295649764383,0.9094468205331929,0.8965927119745887,0.8616045171512936,0.7969998254606305,0.7179924803556683,0.6377437454062802,0.5505131753939261,0.5154373702075974,0.5685074728032191,0.6403054306774107,0.7185695676051709,0.7778330585607036,0.8266999172081171,0.8592027156340953,0.8832610743717448,0.8967347307275206,0.8679544693747667,0.7838837546228006,0.6722277753512405,0.5484043445422402,0.4395465591717356,0.4515044156915229,0.5764707376071425,0.6835007732140927,0.7823947472710895,0.8969048300713034,0.9900882326760168,0.9681367546358257,0.9272616603419643,0.9282722823122058,0.8987456836064451,0.8436152529194292,0.863924036271654,0.9018074260192082,0.9047527952354777,0.9031465422906018,0.8968598207592864,0.8819007646692376,0.8667200141245566,0.8480782749702009,0.8496557058691119,0.86148494573056,0.8840386925838764,0.9049999520602947,0.8930796889761439,0.8566275761595499,0.8158760400883787,0.7363550281999101,0.6559016886225275,0.5731712933144184,0.5174035468284148,0.5525813868889644,0.6184910499056522,0.6854866234279058,0.7522702782217827,0.8039586051386407,0.8468827603956952,0.8647336439513218,0.8912968898238698,0.8869540190660681,0.8201881407915144,0.7097194086847365,0.5839730808670671,0.5335983474717896,0.6388523978281828,0.7553825316937361,0.8738317068487809,0.9572733711784491,0.9382917272106677,0.9248015957182867,0.9061204852304217,0.8573818101923316,0.8504257999191678,0.8961330539746983,0.9092123647238637,0.9089519821992482,0.8682526670292066,0.8342112451123858,0.827557389194669,0.7824050561258531,0.7718220613072582,0.8239329940601641,0.8540869450011805,0.8491479564698041,0.7810804412043564,0.663348120254692,0.5422874602567371,0.41916549854247087,0.2999181486733953,0.18855634836274904,0.1588339736540325,0.2619476580974176,0.39039717772719973,0.5070306524816806,0.633971792070422,0.7482268418886151,0.823525061032305,0.8147108384398103,0.7927367892992594,0.7616631534544287,0.7155691472897043,0.6536890648142424,0.5822458005884159,0.5156368373826239,0.45919410992173315,0.4636235299891833,0.5253988292008889,0.6093513255059921,0.698362643115114,0.7651183788528768,0.8085451340694809,0.8396333053989014,0.8260381436284145,0.7993478835728758,0.7774123503760082,0.7825386040960014,0.8054324734313245,0.806697451945094,0.8245839171550933,0.8404743390882867,0.8508926968334882,0.8324606708136981,0.7812812881572953,0.7689772557058241,0.8249663095239894,0.8667442714909424,0.8580987909197564,0.8121740897876215,0.6920100604901829,0.5717919535837193,0.4485357150792493,0.31930370936175034,0.20257198814148447,0.07926291971219879,0.00021160119730989635,0.05007883658246026,0.16197339737541094,0.2894947930482554,0.42068898105962704,0.55183724675824,0.6765701479808968,0.7810755655898882,0.8296475218775221,0.8217586772663577,0.7942165241258703,0.7573505483150651,0.7064851638200937,0.636934074648563,0.5569629780059606,0.48468068667053776,0.4390896852992294,0.4558311483412356,0.5311024263748276,0.6185403262822198,0.7041997547162513,0.7796104401995518,0.824101375672607,0.8435704376585011,0.8316801444989124,0.8056263070577243,0.7947291871009257,0.7966806124323598,0.8113455942422658,0.8234068825368412,0.8330168137503868,0.8331922491727277,0.827964426753681,0.7867148254952974,0.7481039429311038,0.7971091047912351,0.8635470856179879,0.8835224399021295,0.8757602986576845,0.7862976940280051,0.6638410345222869,0.5376458726686435,0.4198680149090417,0.29097363702998935,0.1738495069031054,0.05356533489433524,0.0,0.0773984149579583,0.20060049003339842,0.3182561865637372,0.4484918382019565,0.5796063194115497,0.7031843613394102,0.8076151388154349,0.8498859609845915,0.8358070135430387,0.8083706269421542,0.7691229781815605,0.7095482667333375,0.6430513268840996,0.5632638168087158,0.49271439617490476,0.44012158044489436,0.45766560442585025,0.529818892057901,0.6094597062508016,0.6987940433232884,0.7812973793246258,0.830510560860485,0.849506651137494,0.8331084247156104,0.8113749794294001,0.7981906480721932,0.8014552594840834,No
0.49255332431744936,0.3940252407814633,0.27039956589562664,0.18368291354731614,0.19410994652066282,0.2776345914216014,0.3789174384944616,0.4594877920193321,0.5379614032978344,0.59229973249849,0.6311046041303428,0.6635419435062726,0.6932113443843901,0.7851782840795289,0.9142027208957035,1.0,0.9431629467022677,0.7963655845475923,0.6214090967781454,0.5350013735637713,0.6406462880033592,0.7099027145185408,0.7112132129452302,0.6623753254867397,0.6093069143044438,0.6427458559958019,0.6833991036720901,0.7129330543977641,0.7153709361640876,0.7114142707685627,0.6956444332780496,0.7142262130176302,0.6959110876564081,0.6898054014111876,0.681259523892324,0.6647053203143942,0.6808275437233879,0.7094275236346537,0.7142218874062705,0.6890534839963607,0.6583057234938874,0.5941608577569024,0.5032042851618392,0.3964532119351176,0.29868949700365377,0.287452259620534,0.3546657524096126,0.4138570855847785,0.49341886151524506,0.5429813388290761,0.5666470168816762,0.6039403992945225,0.6119045604185409,0.6549051973979871,0.7763572662286364,0.9194587925237947,0.9699099341702055,0.8869756213629003,0.7187320048799926,0.5500262311524118,0.4828332649639373,0.5792818659943837,0.6307302783813231,0.6329119444698161,0.586106421477167,0.5344914558774567,0.5578591003026965,0.5903003673906779,0.6105975178480367,0.6271302485693093,0.6008745078442894,0.5898397996337215,0.6004188252804372,0.5776742962360162,0.5866913779703697,0.5927542003230908,0.5851387298067658,0.5662229502674156,0.5816675593830869,0.6180756447671865,0.6195295523988689,0.6054574992689394,0.5979048214752503,0.5570378199366379,0.5005808560900782,0.41246374626755955,0.29712618978021776,0.18048020233503603,0.13552740099977356,0.22419608019960524,0.33280898142961224,0.42151607528233814,0.503890015106041,0.5516808550112353,0.5948109943822688,0.6044563936598486,0.6321528085711501,0.6929151010378227,0.812227354180246,0.9182477809718597,0.8698931612695562,0.7447409745226139,0.5726269954791086,0.4650137928347604,0.5563369576259163,0.6601094912640733,0.6770436034461689,0.6466455768766899,0.5784262990038824,0.5342169982527532,0.5696872174344412,0.6229603227450795,0.6163144212540121,0.6297410054558048,0.6068284862272133,0.6190164150094875,0.6124583225659741,0.6187634888240936,0.6060284518825032,0.6031762931375786,0.6031736803368926,0.6027425028611262,0.5828232449908155,0.5695061878050414,0.5840924312985489,0.5167207777325391,0.4705492682463772,0.44637332332107604,0.47273326869366716,0.4777575740771409,0.5009115721769124,0.48087732620170964,0.477248162664921,0.4847895461409273,0.4817344048838148,0.5002284083730757,0.47747330192669146,0.47600878636006083,0.4757775457477935,0.45600131927695653,0.40811412998817875,0.40956275712401613,0.48217816127913604,0.5443175712991479,0.5316890262237965,0.4201907790260968,0.24081533532492383,0.07730119119760737,0.010863042048303129,0.11476210598442727,0.2833088125373848,0.4529897030094441,0.6286132074932302,0.692440917654995,0.5907301489545365,0.5368050866510696,0.5035056566486933,0.4740617959073745,0.44002367750219396,0.3936112313976947,0.32053431758531303,0.23356490112726025,0.12777788752068364,0.020650869009886108,0.0,0.06788243186666776,0.19261711435777595,0.2942628546802215,0.38001093921825824,0.4525084070460901,0.4771574228530513,0.49135275779430554,0.4767825383318822,0.4658695770310972,0.4400436086316919,0.4437757979501553,0.47256569725794684,0.476006134201846,0.47796520002196274,0.49111045900234895,0.4766715430005215,0.4833753170795374,0.48477941141310765,0.4751817822443778,0.4404952697809499,0.40250928006952513,0.4153000272230756,0.48236406294653467,0.49240764452682306,0.47999424745053076,0.38269148145098963,0.23314184900894386,0.10009634458763994,0.1341842680940024,0.30009908812708463,0.47236282924649053,0.6415346637064312,0.7707722966032797,0.6786891158765522,0.5598671354082629,0.4874700901933977,0.46571806861877985,0.45455677606441824,0.4389751548024181,0.3969333013535925,0.3162008250830288,0.25394965924454205,0.17559961589215511,0.1249418993699214,0.1500462046072384,0.22288467942252588,0.338317320118259,0.4447201832872416,0.518925960969832,0.5677493638324664,0.5878762310889059,0.5867790547302905,0.5604718097733166,0.5508584856298997,0.5508114915473712,0.5508802448563426,0.562819743466247,0.587202888028032,0.5882129367378326,0.5882129301694654,0.5871723855813276,0.5524755419795282,0.47973353471697155,0.4500931399435526,0.4923454388117037,0.5684078175442329,0.58256461798244,0.510104991332148,0.35543476476555114,0.21806583618481934,0.20894082564936056,0.3500952719691046,0.518921783412658,0.6905256056994284,0.8101549777270955,0.7174217820906525,0.6018395941164538,0.5364608352272482,0.5215476519294215,0.5014933565555495,0.46029287434472277,0.40759936794984686,0.3262528766563557,0.2379288611540522,0.1397274573672318,0.05720848831560321,0.034326070121715624,0.09681272538892394,0.20735180389993513,0.3113455877437863,No
0.9131059844725713,0.9552842126149739,0.9835344909338657,1.0,0.9936104850756053,0.983682470098715,0.9750124484696658,0.9725160229007419,0.9719790800765651,0.9746512014989226,0.97136693094191,0.9663549614563092,0.9390578479967968,0.8921181176049626,0.8382019223338864,0.7852287002176124,0.7668023724874331,0.8009386292081762,0.8397163868734632,0.8699620260946368,0.8896345526131171,0.8963462107665721,0.895859746219192,0.8997948944888523,0.8960868165933285,0.8952311715778714,0.9074560044797342,0.8515327414329543,0.7583054048416309,0.6717074638016101,0.5779241150198988,0.4917879876656337,0.5087176959609203,0.6016395174774201,0.6891716226625442,0.7803930339388927,0.865164947185864,0.9288069907270673,0.9167076755355712,0.8856995904813845,0.861344258862633,0.8200740130996098,0.8155374286637089,0.8476183561784798,0.845251391112547,0.8401762616716324,0.836369463343051,0.8326636399415568,0.8417632309129539,0.8608452776132576,0.8762025545598808,0.8865947647056873,0.8770945074530192,0.8546053043020407,0.8115010245795391,0.757149282638379,0.7261191238712725,0.7561393598406396,0.8036513538549657,0.8467020433903936,0.8848444361987395,0.9156152752837405,0.9365028337665882,0.9493021559194585,0.9600574645426017,0.9656724586779375,0.9655615351744009,0.9202710746648433,0.8368848143059422,0.7512328357520697,0.6569799398116976,0.5944760072239088,0.6578753736614309,0.7531367553047854,0.8391795617605067,0.9261211063256796,0.9801452504297465,0.96903426555498,0.9517669498579013,0.9229549438651166,0.9112128442305152,0.9304347698525457,0.9417504305539368,0.945276728114639,0.9357237223489814,0.9319511415557029,0.9415135590344272,0.9455913737810597,0.9370522938170773,0.9154423672877567,0.8812700775716382,0.8262677155474423,0.7711009161026929,0.7264368851543845,0.7352385505373245,0.7812427203497005,0.824082878665922,0.861461160588318,0.88427323853612,0.9089337524899928,0.9240350471166185,0.9425930424680167,0.9559425022705459,0.9879254348365598,0.9542416269463385,0.8789747693920962,0.7947307070300136,0.707914366262989,0.6229053586374049,0.6437860486050613,0.7307049380980684,0.8169691030370152,0.9051290426263532,0.9636178841035394,0.9561153658416881,0.93480885779719,0.8965008732288022,0.864115383458,0.8789972728236806,0.8876200377720744,0.8334579721491053,0.745784818741019,0.6562817560785836,0.5702004021443665,0.4754572219678399,0.37997418784525716,0.2938582918639743,0.2018768184554003,0.15905337450806134,0.21411277805522833,0.30230889319425924,0.3968430867938615,0.4830127886027371,0.5784042714751356,0.6617116788702058,0.7320792053063148,0.8259032535801776,0.8933675313634257,0.8786557582413681,0.8665142707015785,0.8531772708677736,0.8378189106479068,0.8130009337131416,0.7846292406957085,0.747131191624002,0.7008428740245556,0.6564359581095327,0.6489050152667737,0.6868631825653839,0.742338264781929,0.7963689415213837,0.8429422721414279,0.8676364759305799,0.8808477465490454,0.8787680535513629,0.8741727934900538,0.8698978610627739,0.8780956310243462,0.8822226110859606,0.8799626812054404,0.8541684508005649,0.8316487091475429,0.8586490607888142,0.8896704695583462,0.9017009116907002,0.883569529317314,0.7953979738588055,0.7093127909647094,0.6141006898899182,0.5203189032909017,0.43368305860719847,0.33769940197452364,0.24776768415406125,0.1717277738101981,0.17389147947848915,0.2484422961510413,0.326745564418198,0.4079703563253394,0.4944471418310563,0.5906350340443698,0.6863811466285261,0.7725995264965779,0.861786926693326,0.9030722045968722,0.8887559663203026,0.882332997538871,0.8782573536278782,0.856525186469772,0.8336824297052341,0.7961815691000638,0.7552439754794462,0.710073362487031,0.6745229428424819,0.6803876457186218,0.7275275040964391,0.7790391974475157,0.8111470398050185,0.8238164447042315,0.8178909392040468,0.8019745994379197,0.7879341054526297,0.779553606747569,0.7751443355977825,0.7809437484876365,0.7813638970981014,0.7828568882705595,0.7625310791346132,0.758820318150744,0.7988200745830958,0.830031871454505,0.8406363648600004,0.7835989725454788,0.6951534371014687,0.6074644166555347,0.5153643406679094,0.42137765752832435,0.3349096528643407,0.23892110598385297,0.1467148614723961,0.060045947555854795,0.0,0.04410528755976384,0.13832434234598745,0.2353101964169948,0.33212867442835203,0.42178382241306633,0.5119575098405353,0.6079154232147359,0.6943357885856583,0.7800595394600522,0.8313506994957307,0.8258286198548945,0.8319365913755825,0.8347281670667406,0.8288665383812819,0.8121847607074977,0.7871057097389835,0.7458278514865042,0.7095873410005695,0.700348153384311,0.737644597109314,0.7934341671839684,0.8459264401658113,0.8907886913475642,0.907134897458318,0.9111086011988854,0.9080120272240824,0.9008940083085246,0.9107542235884347,0.9208147180292272,0.9267647265502359,0.9368009539616016,0.9262441565825954,0.8944551103841687,0.8584318218080509,No
0.883283558242939,0.8945409074145645,0.8717906965456281,0.8605649477343871,0.8875392473087671,0.9014227850673922,0.8970399315780893,0.8981362039602336,0.8678835354323122,0.8274500365220683,0.7624432931201994,0.6806447910939335,0.6491941988206675,0.6780490490589379,0.7285051062073387,0.7861644982502276,0.8284414394054886,0.8582784445502489,0.858283099410206,0.8820429060181096,0.8943279728325435,0.8604791561883864,0.8018594956908816,0.6989579566952688,0.588677752080303,0.476496563074178,0.3804809131230069,0.3645821238597846,0.4685783214463788,0.5880879870661246,0.7095126446872522,0.828993090287061,0.9361457340188375,0.9514890127999212,0.932883770777015,0.902718899152358,0.8654800829766618,0.8204593623465031,0.8497139206454789,0.8940126563837012,0.9047880326175064,0.9008391690471282,0.9017545561596938,0.9035136468433524,0.8955824437025046,0.8757893015315155,0.9006124165561027,0.8844256841699005,0.8665797954891028,0.8592007948549987,0.8685065900797113,0.8622076942683083,0.863632918277855,0.8751989553453292,0.8852959694233666,0.8701774047731945,0.8683174837645988,0.8485049710486869,0.7919316529214684,0.7194650873422286,0.672524213569262,0.6691296222221315,0.7234531771764865,0.7794261966627682,0.8188863942001139,0.8661642040721627,0.8872960962416987,0.890311011795462,0.8823310083720259,0.8655088074867945,0.7991982539488811,0.7022542631885802,0.5922463284541295,0.4805493086145476,0.4295836571476017,0.5218628564271368,0.6496782220477524,0.7802615156709214,0.8918579588323094,0.9516510283297759,0.9541374636394964,0.9369109775659443,0.9099826632265384,0.8573394356813484,0.8691301858677285,0.9072594390134499,0.9249845634804372,0.9312193953009076,0.9344954183961804,0.9309534001192237,0.9497874905958321,0.9631866657773012,0.9523334655093425,0.9477141833442717,0.9567587501479187,0.9720311303918607,0.9925010640553174,0.9834993466475686,0.9874657902283888,1.0,0.9941961288785985,0.9923649288716305,0.9716932244721552,0.9148941586407768,0.8473073425179565,0.7808809552929126,0.753777477944757,0.791496279342752,0.8385659020967355,0.8979223138097048,0.9375800791362532,0.9716286264068397,0.9815364136077123,0.9881465719893505,0.968065813345774,0.9257817564112942,0.8325231311391574,0.7122587160616343,0.5976708131278148,0.4759503032256087,0.36003862409372367,0.24747712173182324,0.19690332500710372,0.2424793978654809,0.2859501122981887,0.4043752204759752,0.5352109361686024,0.6353705084984997,0.7133882603582165,0.8223870066436367,0.8803984664371125,0.8983547755634933,0.8951741889162124,0.8671902757729084,0.8248094731225515,0.7744412933122984,0.7215287235985328,0.6742761914698967,0.6573682426299161,0.6712048448278485,0.7373990680423552,0.8079042044569653,0.8680711225717967,0.9110808659064711,0.9177971033710026,0.9236610236237173,0.9025016030464426,0.8863133284936326,0.9008173327141802,0.8862101346439752,0.8805857480550143,0.8646739254088498,0.8710641385827729,0.8512340935202101,0.8565955038113269,0.8491356743384335,0.843173247027162,0.846124528956945,0.8439724841734684,0.8328279720460978,0.7934809292541538,0.7624376401444595,0.7846950050157977,0.8473521125638253,0.8709958911564346,0.869766761570081,0.8451345059123292,0.7365196250794885,0.6222343179488301,0.5285984630204883,0.412857266181637,0.300004620813624,0.1873254568755871,0.10657689377979951,0.15885921767405353,0.24927508137402032,0.35761659974271254,0.4745210191386815,0.5841705361547938,0.6930333282389713,0.7759722128127984,0.7933864887801891,0.8080207138611599,0.7988003309049003,0.7783820495385134,0.7432501104266449,0.7030291856586475,0.6402414248054162,0.58087250786655,0.5639866309190462,0.5954175609166059,0.659044364468738,0.7310336101126969,0.7813819553420953,0.7839938432327376,0.7927917565630573,0.7860546304227292,0.7865862056561297,0.7806712952170081,0.7825550124282241,0.7939745030610474,0.7917941870322509,0.7793355420592616,0.7840221797101328,0.8115355524132299,0.8022803470847855,0.807835128083187,0.8130710844772078,0.8037430862951149,0.816592678322209,0.8202335616296534,0.831197224997493,0.8015854655073635,0.7522663610255766,0.7175917053451881,0.7663421907878689,0.8179304926470863,0.8377441451356527,0.8336247136913837,0.7607084275581482,0.6421114701681558,0.5218003352728275,0.401123216356718,0.2806461130785243,0.14962648620228913,0.03326957245154327,0.0,0.08430558607109306,0.19890524168901313,0.3175427609188839,0.4306782573422079,0.5435428041332679,0.6559275742554398,0.756133181225823,0.8037197487333865,0.7885070353172856,0.7771931992011045,0.7670074978313655,0.7462607576603992,0.7023317381022021,0.643717444860318,0.5890501054287958,0.5681977265281803,0.5693789593593457,0.6312272310522946,0.7179501234777894,0.7793970668853056,0.8002638120148116,0.8047484412603279,0.8040278221398531,0.7969406036383506,0.7859960392443379,0.7940150804948436,0.8069660367275846,0.8002989665222091,No
0.7848350172950687,0.808643897595148,0.8086824464128259,0.7953641892181582,0.7985517277593579,0.7560403471877342,0.7057009205579892,0.66840598947257,0.5777080100345398,0.47701904869303924,0.38035176793460224,0.388101926585092,0.48787401350697435,0.5929313510780032,0.6865470386420056,0.7163561377023697,0.6926093234733419,0.6451066577929354,0.6737974243552141,0.7261954323939919,0.7754210643179444,0.7960670657714761,0.786948091259589,0.8041351469813351,0.8097130385406834,0.8136919936279137,0.8108394471406903,0.7756915571244298,0.8003897390080184,0.8457731979813912,0.823290141500602,0.7567158287213163,0.7090457618670505,0.690978833318272,0.6405197486221956,0.6048050378337808,0.5886695048779385,0.5862381055920824,0.6128821912104216,0.649244619896403,0.6619852104186514,0.6343515217235773,0.638680632302473,0.6861627911651853,0.7546982682755603,0.7982083077450675,0.843127418851592,0.8669781352783668,0.8761494545752049,0.8615373709075862,0.8539985160893604,0.8538779190447858,0.7878487785181876,0.6881804668031939,0.5829935745738566,0.5223277075259354,0.5928909789020693,0.699818375197669,0.7793800292969069,0.7985676149821157,0.7691677375943611,0.7333920609668168,0.7660303709990295,0.7771096534998048,0.7891895678246081,0.7682093745963989,0.7466970772808152,0.7022390985696343,0.6619804957995101,0.6194824120370375,0.5714338033974511,0.5828603542605046,0.6007715313830517,0.617376020518428,0.6046482794100725,0.56240197630849,0.5225385770964488,0.4930351470207217,0.4568036802217925,0.4070636161395602,0.3996815119792818,0.4451030718733109,0.49041793886828744,0.5416703086891608,0.6110509249521976,0.6726022098772058,0.7455689322114334,0.8036306368373474,0.8528793518927427,0.9015295975526829,0.967829666960109,0.975059672877006,0.948900461837392,0.9631731096116529,0.9549470934101851,0.9237755626332769,0.8618241219716238,0.7660110551580313,0.6673523045965446,0.5626902067535977,0.5584912969274947,0.6580794910272316,0.7416948237615881,0.7571130142469995,0.714871895648185,0.6590062679685622,0.6246142729944526,0.6247883727464258,0.6365230460894988,0.6153344816016983,0.606708213014922,0.6518356450775276,0.6959739036535342,0.7601722316148538,0.8111578785752798,0.8550848153426265,0.9205676802733094,0.9783073939951197,1.0,0.9626281727225607,0.8966536056810197,0.9066863695770597,0.9052108260937346,0.8537568103560669,0.787066828264106,0.7363215069616569,0.6885743122346466,0.619297416611925,0.5716595837342959,0.5257961602291523,0.5265466131982088,0.546835709627385,0.5365620718583455,0.5332797364912323,0.5878858413842738,0.645089245262906,0.6552588372151669,0.5669101479806375,0.461152875805793,0.3505821763829542,0.25791142568893877,0.17787840015199397,0.16435968005807577,0.25104315268637567,0.35893903988033227,0.46318097233780264,0.5746683113962456,0.67767055795162,0.777770339251906,0.8291288014943503,0.8572643600458569,0.8633858780429282,0.8706625298498181,0.8692974608275703,0.8210072569523925,0.7610603445629938,0.7105925503419988,0.6399533445683034,0.5791046634194572,0.5145037277086502,0.4507468403839616,0.3915191069888371,0.34604146969212923,0.3097602199278118,0.30979689589765114,0.3522237880476209,0.40455572974239606,0.43883613916162556,0.4674234953364378,0.5071712005139566,0.5187667253401491,0.5175105487467162,0.49111878335763093,0.48795129655831815,0.5304162201053648,0.5657452065640949,0.6120927414169004,0.6546533296349919,0.690288039756219,0.7171714066962163,0.704265609029334,0.6927596396698674,0.6577225955417294,0.6636781146171491,0.7075719127195308,0.7188895415052352,0.6459104614770967,0.5331574770527268,0.4156779826896324,0.30171972123468027,0.19942182323433455,0.13545732428771595,0.18630328814063057,0.29126446727134425,0.39452808254488136,0.48881419381068403,0.5775347582377561,0.6817945039175033,0.7603986761516781,0.7758331654659649,0.7892221558651689,0.7957835809944238,0.7817918417915579,0.7492702863560021,0.7053085161635053,0.6401164823742356,0.5845697514520771,0.5493387192446817,0.5440504510037796,0.5710200411456903,0.5652141195864933,0.5255425254149997,0.5027721584355098,0.5157861001478694,0.541190183232465,0.5715627407391133,0.6108209018238049,0.6458025111970755,0.6760062972974339,0.7390006248118284,0.7406567833797775,0.708388355572243,0.7300062570157664,0.745508788485377,0.7427014029928989,0.7333476908820469,0.716244278282808,0.7301384200553573,0.7068296230525601,0.6516083910070725,0.6017166756542394,0.5669490516048881,0.5915301605408159,0.6431703560301743,0.6129184321001935,0.5133023387665423,0.40384325032944624,0.29995804936387493,0.1886232498827427,0.08588068922204206,0.0,0.01475246158469723,0.12016114991913085,0.23759633785416856,0.3540928431940711,0.45800879061410793,0.5550591596451246,0.626610947360434,0.66215107729015,0.7230307561654583,0.7365990832408338,0.7339963576469333,0.7366030098279466,0.7406896637606621,0.7006980765183797,No
0.9206519454267652,0.9360735891577976,0.9480330726694581,0.9223121565568095,0.9257410415688603,0.9473733689100969,0.935925167590637,0.935468921198428,0.9214265399228334,0.8850399781186757,0.8322335850665157,0.7782708238792626,0.7251637680325849,0.7211683309357291,0.7854852257745737,0.8196128102276545,0.8333468198179377,0.8724530418746816,0.9123534483171776,0.9015552438136334,0.9256579488883414,0.8954031291536033,0.776116841268816,0.6585513767143429,0.542618663498716,0.5446584048073189,0.6637359139262395,0.7809629964109162,0.8943175208762666,0.9536487065063426,0.950267450392325,0.9290177269300779,0.9175218649848524,0.869036656655406,0.8587272126345376,0.8855249131901202,0.9016633502707228,0.9071648672361077,0.9180626719208513,0.9130081488455062,0.9016034598344116,0.9024995652868371,0.9181888419690303,0.9201912265175514,0.9497533605750834,0.9162951347069854,0.8617682108007494,0.8784911084475504,0.8316452652815203,0.7704222826299141,0.7637896031220124,0.7875142767083374,0.818292735300151,0.8584895818979081,0.8684738509018155,0.8931934084007955,0.9174228526384782,0.9253224044959167,0.9603611290265532,0.9005150221133813,0.7875228328139001,0.6684066067507808,0.5492352017570901,0.5339340260422465,0.6535035501486939,0.7719756583256348,0.8893024123910389,0.961759200907601,0.9419819513009409,0.9535515800379408,0.9400771276977982,0.8713070310038797,0.8526247778826295,0.8961952172472007,0.9091740187892547,0.9257016481745581,0.9253298386955771,0.8999448154997656,0.918752408337757,0.9381872953777131,0.9234370495795932,0.9369024315740844,0.9313448618095999,0.9494089758921271,0.9204301194151308,0.865585285693661,0.8249708394813386,0.7862048232950491,0.7773124426673577,0.7702534914714367,0.7820431561450119,0.8074175311950622,0.8411767560138399,0.865414564210107,0.9041667599498697,0.9056264196268251,0.9427568275266851,1.0,0.9504277221317183,0.8362371907765498,0.713386588804418,0.5931587332840969,0.475267469116051,0.41319181049006914,0.514519562847616,0.6379687500545193,0.758785489104997,0.8807072378073855,0.9680143036955884,0.985478713112331,0.9814168593125165,0.9550578548162654,0.905556684062315,0.9026056913725293,0.9172489418041092,0.9201868744887238,0.9545566364870952,0.9729733122162023,0.9476853235823528,0.943008075023823,0.9628829999180795,0.9661922473211924,0.9938146328213118,0.9716187009456063,0.90917207294985,0.8791706446639944,0.884658870387887,0.875836912166478,0.8578241517323271,0.8835930047472762,0.8797979051352578,0.8560694857702607,0.8188872195318568,0.7679226085069901,0.8015642649795778,0.8624237323594914,0.8858013914358693,0.879300700651044,0.8017561938737301,0.6900641776245728,0.589767991673122,0.4725938094789037,0.34445509739397195,0.22699613354545045,0.10068658220498206,0.0019661356682081355,0.01916180149357949,0.13478047631345502,0.25257752823999624,0.38184942363887053,0.500760575476082,0.6267294172254481,0.7576564492998985,0.8550113568115338,0.846862758712938,0.8356082167328491,0.8144136366265902,0.7674562164896761,0.7130522548822258,0.6944884607651907,0.6746961675489032,0.6594111823100008,0.6687089363046335,0.7343610738610842,0.7815377253843434,0.8324825617217373,0.8565692338528805,0.8401289864837933,0.8360576686993237,0.8151441671104993,0.8129173555902258,0.8050502090429172,0.8134725165243863,0.8202466161829776,0.8347781839777624,0.8166309233341096,0.8139252322732542,0.7750886543248723,0.8031242627188573,0.8559467939519965,0.8690854342768684,0.8674939231861796,0.7601732200762084,0.6404386766580967,0.5167471359145237,0.3987520253713779,0.27380111640352967,0.15794677155570902,0.07030676001205238,0.11299033883542808,0.22664999965543675,0.35592888223258834,0.4740371236886234,0.5956138282809804,0.7139146517012804,0.8171582658535521,0.8336619046016809,0.8160112370075718,0.7959195778400723,0.7623118846873171,0.7263499356888325,0.6997967322176382,0.6856009095420061,0.7175092354512307,0.7684394955813518,0.7813539232462752,0.8277839983681106,0.8632055340719691,0.8482112783937401,0.8363079135469467,0.8237344658087733,0.8184425316883837,0.823027164053026,0.8228817906932036,0.8258297121055147,0.7873430541499911,0.7689831925264139,0.7762080722201787,0.8332602077786446,0.8576875861246132,0.8403743259910139,0.7523759487456836,0.6364079662588691,0.5089613190609139,0.3818146582811819,0.26368954020411683,0.13520775366620663,0.02601990427529355,0.0,0.10318347536352013,0.2340951766707926,0.3628594821950446,0.4802455863823045,0.6067165254898095,0.7229383748331504,0.812060822875674,0.8283540410647285,0.8090629653852552,0.7865993243488321,0.7479231563837296,0.7081909520093204,0.6574263518601833,0.6439270805795241,0.6604773605828327,0.7161317730020125,0.7760843536622519,0.8271035938096185,0.8494044002120162,0.845620666257537,0.8519696233370295,0.8532188835983163,0.8509381937633447,0.8320558611984046,0.832809469907438,0.8482622850316397,No
0.9769374126103267,0.9812494039412507,0.948087311242539,0.8607312886371861,0.7602020760876016,0.6716290594850776,0.6816402773376495,0.7801457178094635,0.8739759869823489,0.9568104808965177,0.9943357573128333,0.9647234269776552,0.9171729182427413,0.9131703243346339,0.9454033046324404,0.9629407226451407,0.959158565372348,0.9658382488974313,0.9686026875778868,0.9682159481130292,0.9589509856119331,0.9341315896108568,0.883107858939149,0.8284631419128763,0.8284488771681602,0.8721388540995836,0.9108278460142123,0.9376607358690681,0.9585848820893133,0.9739601194847243,0.9816167609999531,0.9615989794549624,0.8813106172945386,0.7866232051251547,0.6863483743323964,0.5918290256714962,0.6054736205975333,0.7049144397051563,0.8017324376334063,0.8999794021685044,0.9784993832364637,0.9808988461533308,0.9402434929152332,0.9126543896331651,0.9364607598183721,0.9580282262931425,0.9579228744912656,0.9671657369722584,0.9684506046930061,0.961520654867877,0.9467137074727412,0.9231377046581577,0.8736828306983502,0.8209004834084084,0.8280190120462465,0.8685801081632678,0.9040538908668907,0.9346478841873149,0.9543827229428121,0.9616798962909074,0.9733479423160158,0.985937531514975,0.9467290852307477,0.8554284782094332,0.7610366679907039,0.6658093534382681,0.6780066275309271,0.774078198137699,0.8658305397961983,0.950999421061252,0.9867884108843366,0.953991791875636,0.9109854713532815,0.9211189786078822,0.9522663793407484,0.9687514669619115,0.9770904943729266,0.9771694672946492,0.9703040928846018,0.9627288253601467,0.9546244318496604,0.9347398995220164,0.8835375022664071,0.837354218219605,0.8464756211098026,0.8886377193286439,0.9252746822433244,0.9537510879352813,0.9722980104152472,0.9857113533968644,0.9940767649227151,0.9625509911183205,0.8769223605858252,0.7795986334842349,0.683020861146769,0.6767220532439611,0.7632526465026821,0.8628905020571485,0.9493988586439146,1.0,0.9755666430541563,0.9303030490977151,0.9158128109740069,0.9452764090386059,0.9672582958222105,0.9646477238796587,0.9356313850253861,0.9337805553688776,0.9205593555602176,0.8850805505402097,0.8711325824062728,0.9019696478767214,0.940384857820848,0.8965118551147939,0.805416725537003,0.7038931151595391,0.6093807280677541,0.5069343336861396,0.4059743836069203,0.3106842243754475,0.20695734684421807,0.10927993967554928,0.03435452228794711,0.06596792481970448,0.1643031281369709,0.265971586849153,0.3608010941641715,0.4643939426573338,0.5689478858663228,0.6734995430153088,0.776569675694796,0.8703330916127121,0.9408496878754931,0.9474707674518958,0.9352921217643826,0.9129252922623676,0.8841983507808426,0.8453414254930403,0.8035159359348731,0.7809945268808454,0.8118803784179942,0.8684190599701802,0.9059411274459142,0.9169222262444605,0.9303369755246682,0.9345469054681783,0.9358399120107785,0.9292129543588548,0.918820312791671,0.8897991604148952,0.8611260061584733,0.8672556038870431,0.9102494281138216,0.9242737459018588,0.8493998377614371,0.7564430762706791,0.6581206655317111,0.5545070677353368,0.4594831000319719,0.35811884299431784,0.2538241603010092,0.15670844319315402,0.06108367449589136,0.022809791094998033,0.09721411477417097,0.1950932179825684,0.2994733101310407,0.39994979456116897,0.4955977564042364,0.5996165738372754,0.7029858345692093,0.7975970572456985,0.8930215111607755,0.9314824183652877,0.9210667319903831,0.9038868504218502,0.8831293152256863,0.8496751958064772,0.8118927165526082,0.7741853336191662,0.7725780629774097,0.822019237053881,0.8741361559645999,0.9084783955124629,0.9211875373024241,0.9225230157436739,0.9208041761617363,0.918041657120471,0.9154380655709522,0.8834051640713874,0.8636616028545987,0.8880723232426497,0.9323987729136647,0.897910827425155,0.806226182873091,0.7119505020112147,0.6103206428675148,0.5127857091428141,0.4144578754051189,0.3100329221316658,0.20548198870145118,0.10318242814887624,0.045089316744929775,0.10273886070466465,0.19694774723358366,0.29731514430436934,0.4015439378794692,0.49834701385996016,0.5974624943406348,0.7001260623870236,0.7945513714927714,0.889961481221798,0.9334778367504759,0.9297123687764239,0.9156647165151672,0.8914127258923492,0.8586192848469878,0.8169117465445486,0.778660859342958,0.7777887319772732,0.8278286569774194,0.8779759647593126,0.9114028662980034,0.9240354051431394,0.9279251397281003,0.9278256017276378,0.9238370338005204,0.9224268206387416,0.9129295795949548,0.8780433768598837,0.8610102980590479,0.8840407867470019,0.9225429692371847,0.8725096324354116,0.7804626162033022,0.6801393885014129,0.5794889468360862,0.4839949604839795,0.3802238103024427,0.28264284156428654,0.18435218776824014,0.08136468092613813,0.0,0.01499409695430498,0.10575289749773464,0.20983692405328025,0.31439158093401676,0.4189462378147535,0.5234772853539911,0.6246006544440297,0.7197383701524069,0.8195198276855375,0.9045026245137286,0.9319646079736836,0.9384313542383849,No
0.912017883449252,0.8035287227826302,0.6799799652762868,0.5626351422148583,0.43417354419201004,0.3640972720975979,0.455192292383908,0.5845914469649185,0.6925029807407039,0.7333059270399502,0.7179046350683915,0.6789396939792613,0.5992300222611417,0.5595021232889485,0.5842535054815072,0.6127929134356913,0.623338321898828,0.6166082743949346,0.618349777753747,0.6471719492754602,0.6709137800201823,0.6615597058954608,0.6537884327867998,0.6224324763649531,0.5640513794320099,0.49411036691570054,0.41915462794730995,0.3623239672679701,0.39745143681141437,0.465875599372195,0.529731659189355,0.5758012183514092,0.609624972361344,0.6350319545990817,0.6939377242337867,0.7893480379885087,0.8910856476497031,0.9637466818675642,0.90905815762176,0.79789367321442,0.6788075504332198,0.5563483292577289,0.43802972403188223,0.4103534978035914,0.5147777887216543,0.6266213824261708,0.6764530263808655,0.692374580168055,0.72051973643228,0.6810810312875657,0.6541884687638264,0.6812616600172876,0.7107263378365447,0.7076991633208047,0.677762059135083,0.639056732059061,0.6346099440975199,0.659318034720656,0.6752033607797996,0.6768696018856644,0.6593364520986591,0.6060233778393629,0.5313791517143267,0.4621908388388061,0.45976836014779243,0.5105951202442225,0.5559482240166642,0.5908792263724498,0.6262198909372447,0.6713964068252061,0.7522800117447059,0.8557770842199441,0.9507220236389986,0.9753781055595501,0.890943412241215,0.7731907273478682,0.6423379664234314,0.5189546920410333,0.5037472549905653,0.6034457982182868,0.6799036962267717,0.7080032610719749,0.6875989569149885,0.6330952984889766,0.5893269048396803,0.6175512281780051,0.6208963386124888,0.6244499498599847,0.6353031628397119,0.6260131487703178,0.633120331207174,0.6582667977740653,0.6565396571466229,0.6642405195114227,0.638528023630232,0.590401222956789,0.5164222510740069,0.45998422419332563,0.4537531653248985,0.5039359224849824,0.549675621166811,0.5998775316024214,0.6344312983573994,0.6600146824238688,0.7329205647003922,0.8344699117309435,0.9363260859968525,1.0000000000000004,0.9476190615250144,0.8548555352943588,0.7403274559821305,0.6167280197817413,0.5010998219037885,0.4624717838750949,0.5602938081100577,0.6526798433955192,0.6698141549081575,0.6872988724613522,0.653223515985391,0.6093100061271777,0.6218239044908982,0.6394920820963845,0.6514230326863184,0.639042491374513,0.6293488962403622,0.5924975932189209,0.5629251934125152,0.5691210264322359,0.579173737469322,0.5615434227939535,0.5360283423787036,0.5695740135355565,0.6071463302864135,0.5940925097337426,0.515505357100035,0.39712991147084953,0.2796518069556231,0.17518054388093107,0.15105748702468258,0.24271972090946914,0.36922352193954966,0.4866727518946341,0.6144089480957193,0.7316422288549806,0.8017760047078788,0.7235143780240318,0.6361411482835782,0.5861628530790348,0.5551425618613997,0.5098329175698271,0.4523255765978784,0.4055415929573418,0.3701024139132749,0.3792085046660034,0.4314436291101673,0.5097124722347512,0.5651505389494877,0.5782538037526224,0.5704294781927675,0.5764832575616801,0.5587785110344741,0.5536917534684305,0.5528547813952489,0.5608860560165563,0.5482156789297004,0.5241776653300558,0.5381568239391386,0.5969598867919954,0.6224258318395499,0.582438894461053,0.47287007396771275,0.35652329177984754,0.2376313981730096,0.1267380186084166,0.10067937799178095,0.19692217008076973,0.3129012499895456,0.41013041743819567,0.5298686936852408,0.6523593362590239,0.7644535153294072,0.7677293554897,0.6764683103113254,0.6077033146470407,0.566125457250116,0.5322548938902547,0.49401726096103715,0.46102403713067197,0.4148999451554176,0.3827674137785051,0.4119507298274101,0.4752385903572507,0.5503113674404458,0.5988578157297906,0.6026808154182364,0.6068341415837382,0.5658338618484615,0.5598133754987797,0.578553770236296,0.6198704938297954,0.6276362713370842,0.6176317995035197,0.5978035852820884,0.5852175189551185,0.6210744062769153,0.6255091867297184,0.608153727664646,0.5570921749840894,0.44367409939615987,0.32416446838260793,0.2001628931152295,0.07631742779705775,0.0,0.046814223657049236,0.15502484609535117,0.25834226898765245,0.3737570044002507,0.5008844737905163,0.6270286816916348,0.7430301208674628,0.780685705013175,0.6817211188712458,0.608832944994413,0.5608624603627708,0.5341061389230926,0.5107878938546837,0.4521378346979916,0.38418236805195294,0.32154357697283276,0.2611071453696674,0.2921915720039423,0.36096509047359904,0.44159123276613643,0.5098877900971326,0.5636538075306521,0.5805438862575056,0.5886634036989031,0.5738163388278115,0.552503647757896,0.5369603944157455,0.5484144280567156,0.5403749732259087,0.52010098242395,0.48928738491013535,0.4949870433655654,0.5434468723496546,0.6215988500485747,0.6573066154758038,0.6382659157476236,0.5362497208664427,0.4165718869948507,0.29742071135304693,0.180112833647454,0.09353446528711817,0.13026337072954908,No
0.9503436285641744,0.9775605245925456,0.9882637811584363,0.9883294942930949,1.0000000000000002,0.9911072780989783,0.9626806816436899,0.9354106475893575,0.9368367245272247,0.9359541529869067,0.9305303577363733,0.9325503365255832,0.9446963437457458,0.9454043534513266,0.9541642176278378,0.9564860357307368,0.9458362864012282,0.9331100505820726,0.893599202110839,0.8684671526055252,0.8860655483215176,0.8960622326299428,0.9017710411877078,0.9077280910005026,0.9085264866999994,0.9270982699783878,0.9353092011988269,0.9471044174717045,0.9423892135387304,0.9031698452131056,0.8408785012525295,0.7659025742920862,0.6847732694477828,0.6017382186143585,0.5162683283137193,0.46853811855120253,0.5387640655695216,0.6193008964813511,0.7097726094541048,0.7944903110863273,0.8774993475557185,0.9514133050242684,0.9807186121117366,0.9930592620199155,0.9949675217329446,0.9919932848597177,0.9580999942287665,0.9399651198715799,0.9617016355795334,0.9804351501923316,0.9881133158854032,0.9845890498757226,0.9871183522729929,0.9892281166753045,0.9776212145377248,0.9630218172230773,0.9573957779597044,0.9685415815195204,0.9788561862949339,0.9744657056699249,0.9784614228047921,0.979139541168067,0.9667669860784895,0.9317561176574902,0.9126493680208225,0.89828097931109,0.8935472545831831,0.9059534390196806,0.9086497111682863,0.9195660287448726,0.9413017079151544,0.9478249962028322,0.9409177428661291,0.9461845080998523,0.9234803899996862,0.8785950893363046,0.8100558118752541,0.7291296964121134,0.6399426980361789,0.5591552564472939,0.46822755297967134,0.4016457397582396,0.4501580715739302,0.5418205541061505,0.6332159234474026,0.7142284529987524,0.8031040738322501,0.8849738785151005,0.9417699195077829,0.9426212946752124,0.9421097035213115,0.9211254392372952,0.900849523313431,0.8767924221748069,0.8494240432756295,0.8263212368916715,0.8636265483349923,0.8915692310741778,0.9209118253388431,0.9271689078755065,0.933108394510316,0.945663518869073,0.951436717817187,0.9480726103016635,0.9531299941739826,0.9485400564533364,0.9446970702949826,0.9435084124267441,0.9435968209545191,0.9690417497682409,0.9726541539765721,0.9793480810489268,0.9838691042078944,0.9848001421265404,0.9542684536850501,0.9175317162279548,0.9256725654517706,0.9396160300827845,0.9489709766821302,0.9576037703439992,0.9320919208107485,0.9045173210458153,0.879164393910034,0.8844206050190666,0.8801185773547819,0.8680459321091247,0.8741128748163864,0.9101558735321229,0.9236135157996708,0.9216526154939133,0.9130233216368662,0.9055455844699705,0.8890854056321966,0.878206721200596,0.8794203534554759,0.8892456298336893,0.8881151381761019,0.8969871891751169,0.8703339645315251,0.8796527429925793,0.8790378176344078,0.866897459717092,0.856539112864138,0.8323476168744726,0.8064092625285106,0.7649376522393194,0.7581091812683158,0.8030128046321117,0.8315536647063084,0.8546338356789434,0.8705107503279288,0.8703317255483654,0.874985778873387,0.8105772654496832,0.7220129629177461,0.6312237088622237,0.5505234037299129,0.4603439593320029,0.3679732371582134,0.27559764620011573,0.18322375205489805,0.09229735787420434,0.01689805493769936,0.0,0.06890655284011604,0.14968968952626516,0.23861685395872412,0.32586280820701985,0.40836083150465874,0.4999892723072519,0.58294352350785,0.6695662872542754,0.7546243038986999,0.8292014256098736,0.870854579740233,0.8805044461484097,0.8806721677578044,0.8795159065185467,0.8619661958182123,0.8500076174176991,0.8436662907462489,0.8265604889882179,0.8283155172736485,0.8445381697941967,0.8849083820764847,0.9073261077317201,0.9115297104712929,0.9080984450133014,0.9034635990267572,0.9093936988301163,0.8981078170175862,0.9040260817638666,0.9054804075770246,0.9149517026932419,0.9178623887134936,0.9251650727925445,0.9256692300829703,0.9313862364878596,0.9150955900050255,0.8883573145964532,0.8851376866090328,0.9115950858087294,0.9182395504349323,0.931980663338219,0.9324010175752961,0.9133344702190491,0.8584826570473074,0.7718621722065648,0.690933366231864,0.604684524221504,0.535059166384795,0.44580542115782884,0.3534370764213499,0.26247974553976094,0.18175767061842318,0.09618578814245993,0.05997793518685257,0.10868861329082224,0.1921434098250454,0.28124121903931565,0.36227884070651206,0.45367569414521713,0.5430327896155933,0.6239593495503539,0.7104449896815221,0.7878522301881048,0.8596060329378641,0.8886255288292386,0.8755323411754377,0.8764596600217287,0.8677654898402951,0.8508605571251204,0.8396045730018658,0.8354392670770967,0.8215197389028306,0.8228444317844825,0.8078552113690021,0.8188108309745445,0.8622869156171944,0.8865831476180064,0.8958816174823057,0.8959722942051067,0.8881357979503204,0.8754249241653371,0.8794191674409928,0.880296874689124,0.8708696196162429,0.8744526622774493,0.9016226903900983,0.9304914363830064,0.9230266055397369,0.9318653627293518,0.9254954093453953,0.9116163428507413,0.8848820977582041,No
