0,1,2,3,4,5,6,7,8,9,10,11,12,13,14,15,16,17,18,19,20,21,22,23,24,25,26,27,28,29,30,31,32,33,34,35,36,37,38,39,40,41,42,43,44,45,46,47,48,49,50,51,52,53,54,55,56,57,58,59,60,61,62,63,64,65,66,67,68,69,70,71,72,73,74,75,76,77,78,79,80,81,82,83,84,85,86,87,88,89,90,91,92,93,94,95,96,97,98,99,100,101,102,103,104,105,106,107,108,109,110,111,112,113,114,115,116,117,118,119,120,121,122,123,124,125,126,127,128,129,130,131,132,133,134,135,136,137,138,139,140,141,142,143,144,145,146,147,148,149,150,151,152,153,154,155,156,157,158,159,160,161,162,163,164,165,166,167,168,169,170,171,172,173,174,175,176,177,178,179,180,181,182,183,184,185,186,187,188,189,190,191,192,193,194,195,196,197,198,199,200,201,202,203,204,205,206,207,208,209,210,211,212,213,214,215,216,217,218,219,220,221,222,223,224,225,226,227,228,229,230,231,232,233,234,235,236,237,238,239,240,241,242,243,244,245,246,247,248,249,250,251,252,253,254,Target
0.7029917745058532,0.6836425583325418,0.6753774729921256,0.6795645849547789,0.7137359190490509,0.7097462811938433,0.6893269881240993,0.6738982091167962,0.6444708519608504,0.6392500281173366,0.7177253935669574,0.7878127925365659,0.8163956926608842,0.7945798662560373,0.7664588577045715,0.748605390126305,0.710631651277656,0.6999425860641431,0.6488045296383342,0.5639932229806508,0.4576290518793078,0.40177850879768773,0.5053951379163601,0.6386229018434033,0.7454561166945117,0.8739072088566884,0.9454532932896615,0.8782773815250113,0.7554467824918705,0.6812697035493569,0.6768781892379714,0.6963631997079549,0.6684875993369133,0.6243376447791329,0.632840549472264,0.6727964920314866,0.6876242688788299,0.6604096687953298,0.6709571666886216,0.7004421681346065,0.6852284111776896,0.6489234776953143,0.6697165430568788,0.6998733818441805,0.6847610131405144,0.7011008291096843,0.703938677549,0.7035462438741868,0.6861294318899356,0.6529594963225609,0.6408279605153719,0.6045444367127955,0.5842565267652029,0.6507074023161588,0.7290667900913572,0.7774219267879818,0.7786293604497088,0.7449205860396146,0.7142006716525202,0.7116047849436589,0.6775967533936917,0.6449523938787793,0.5807191009537984,0.47837019820631443,0.4222847262269296,0.5030073387227283,0.6093752586343335,0.7398158696682389,0.8629259495609611,0.9059271547682348,0.8636384557281911,0.8949897185350384,0.8741624436137423,0.8352332192344321,0.7978636080721806,0.7706929028628551,0.7936080879752447,0.8141343959959721,0.7791600034445478,0.7078075282751346,0.6335321730193577,0.6181882803866685,0.6221047881736732,0.672044458204935,0.7277142634110092,0.7487205631768301,0.7493815645800295,0.7526656360015531,0.7459161242762109,0.7438904237059321,0.6906466994279947,0.6663571642630517,0.6893989582661391,0.6641814915575495,0.68810735068661,0.7626980450073777,0.827335787673289,0.8741428986020061,0.8926340567870135,0.8530680511143673,0.8294179083637578,0.7941810988827509,0.7634356278473993,0.7272365809172348,0.6525575410127429,0.5673894544382909,0.5771475502297649,0.7026699276710247,0.8338493736621517,0.9571571087412964,1.0,0.9070750236511955,0.7969758265512468,0.7808891005082232,0.758003220869707,0.7328701057017968,0.7051893257621735,0.6612488574066786,0.6857668019924743,0.7172325759548279,0.732292333355657,0.7325518514047316,0.7325518514047316,0.7325335918060709,0.7237160001392073,0.6736733828460411,0.663355530645199,0.6485984264239955,0.6502613038603151,0.6358886755394053,0.6351804542715058,0.621642804293816,0.5779562234874778,0.5562238434693274,0.6013630144081112,0.6441628658267478,0.6669632112561148,0.6861161932403803,0.6800116985722333,0.6810361111403438,0.5613949406786123,0.46353867564053,0.3635955582351764,0.24889307964350138,0.1364001433764095,0.1396694556677529,0.25227000619494255,0.37759681790579425,0.495647693541442,0.595555054881971,0.6593717742583687,0.6840068921034002,0.7239791237666555,0.7570606955049639,0.7734148937782139,0.7588317122343584,0.7254200376524844,0.6468079344614601,0.5706220810389571,0.5554476160688182,0.5912922553674482,0.5744120790723324,0.5713984791375069,0.6256335169860012,0.6530751583618599,0.6637216924293536,0.6539953308877298,0.6156718033636803,0.5550293968923103,0.5218800861338782,0.5208574575075122,0.5276402252788364,0.5777481374939644,0.661220642304988,0.7222285440620864,0.7021127640727904,0.6850472155577263,0.6883940398296255,0.724373539686165,0.7546528698578925,0.7949917194495946,0.7543529087287064,0.6882352488966879,0.5877796679062515,0.4596072834078795,0.3499885077079714,0.23794794937137098,0.10235057133191816,0.04754480778083359,0.12424723853801733,0.24899911898859983,0.3764944334068536,0.48907459326045366,0.557136167453451,0.5854447744586659,0.6198860982340442,0.6386648452515562,0.6735464156008,0.6785068340933584,0.6282831359564502,0.5445001282462654,0.49603692652107334,0.511691754954068,0.556897130220225,0.5786558995020004,0.5971541310140944,0.5909660189167161,0.6059346326496815,0.6066661319440634,0.6066631464219405,0.6039202138233994,0.575078047031437,0.5512978060533058,0.5740326015629362,0.6015740578471354,0.5809215129645855,0.5820658674909716,0.5909087233825687,0.5498715106156293,0.5151432254525163,0.5069395463896562,0.5688142642790668,0.5984028412391149,0.5793661585421699,0.5789500900997604,0.6151365790547771,0.6119599228723409,0.4908351806595581,0.3577232409525264,0.2201467925836127,0.07967271428022649,0.0,0.05025864321554252,0.16901659028919802,0.29595203247186674,0.41169024071617155,0.5194643464522075,0.5958248641946229,0.6145503784025665,0.6438515613577094,0.6649391559680753,0.6994144455179745,0.7074799393826048,0.6735895324699683,0.5940622154573578,0.5375756240328284,0.5351746283883934,0.5747538659250866,0.6028897545868919,0.6240322976219312,0.6156082682634132,0.5834656703649994,0.5864159230542159,0.6057373976934812,0.6066659772651652,No
0.49491950220433223,0.5031471726098835,0.485929221567885,0.4270593359390693,0.4436064510484581,0.5526797187692027,0.6438675246831984,0.7260591219613732,0.8279282178022744,0.9319478051781167,0.9877275139899884,0.9248004732758233,0.8263871227013535,0.714879326496491,0.6132187648899512,0.5512658515428495,0.5475065878991443,0.5463553045197811,0.536867192267259,0.5311811603764469,0.5301649038987328,0.5140243974031029,0.4820438698083511,0.4770343490149589,0.5059617932114069,0.5106231046675567,0.5108988341893914,0.5125887606257384,0.5280529475040279,0.5367203500015076,0.5265053090931167,0.5455740482003417,0.541659238874642,0.5440912205315978,0.5163333365285814,0.49826325994350285,0.5095958026864071,0.5117419031797974,0.534257417928266,0.5467052746901961,0.5304980269020372,0.5168298375084661,0.5129128588321268,0.4833753558053768,0.40979460390171507,0.33312805232493536,0.381556488181384,0.49770703620354606,0.6056385157372071,0.7256900372993433,0.837666847292521,0.9332644955786376,0.9327664906866717,0.8474680538522348,0.7481418014917094,0.6471454870329736,0.5722354837820611,0.549636361092138,0.5606578691722732,0.5792191731998013,0.5748478869718419,0.5674822820404515,0.5509176074504869,0.5381311705575911,0.5056896478751729,0.5249703488095543,0.5478027600659723,0.5461327118616808,0.5333329021920803,0.5578915716931654,0.5466410494489007,0.5465591798009832,0.5384206958928259,0.5490264356961019,0.5437253588254491,0.5295176807393647,0.49734700730721704,0.457813379916006,0.44480133570418623,0.4649424856917599,0.5033500940882472,0.5153756422935958,0.515010112446284,0.51602114354379,0.48260362434035065,0.41016596061645183,0.42149287487846676,0.5282338936013735,0.6393389588230702,0.7572072649009893,0.8649333447243781,0.9731802870553801,1.0,0.9132519583425012,0.8066145710521284,0.7049133576969759,0.6067486617416673,0.5488365844432037,0.5364822799682449,0.5298235464111007,0.5216495537304509,0.5243323485540046,0.520769408759683,0.4853813915319356,0.47795112150202756,0.5094656151193684,0.5242881952446763,0.5118024155643557,0.5037675113539382,0.4873370311880807,0.48669425355292306,0.49735955967673506,0.4799396008762211,0.46185563681464226,0.45611634725133765,0.4298758749019038,0.42188092920016285,0.4446296842429618,0.47003610941457996,0.43563862553459787,0.3945972536820066,0.3542997940592443,0.29680742788846937,0.18079769584172656,0.06423695224918768,0.01097536846817082,0.037229742751792916,0.14200638238855,0.2621783694408739,0.3400867746510081,0.3078149393967431,0.19619996176842003,0.07768842748862737,0.00885287952622038,0.0,0.043787545475517664,0.1548940140157975,0.2739599099050305,0.3294416034927301,0.2482302375509593,0.127576923778844,0.025557858065310857,0.0003609669668356297,0.023064765724497782,0.12112549944728324,0.24187454011455367,0.33804178885660097,0.38173891203863164,0.40421001618866326,0.41864845159774733,0.4233236713945958,0.4190914581451848,0.4228256961234691,0.42617491142383424,0.4341181890432204,0.44542688027630106,0.40854650063003506,0.3969549164000967,0.42302676348080004,0.456525707515548,0.45621573344126176,0.4640684960681116,0.46783889003765955,0.4665117879818661,0.4470398278232226,0.4822331039586061,0.569257848617958,0.6779332662265434,0.7148037893033536,0.6098471682227276,0.49431615007593743,0.3865275208368537,0.2974289139137176,0.2908529227807932,0.35846815439844226,0.43711477820838107,0.45490276515002614,0.4549603315972095,0.43885299093396446,0.3959614468212145,0.3668837896840955,0.3784702339145949,0.4016328868898955,0.4356928272647034,0.456896861346757,0.47260515330920727,0.4432311376004394,0.44735586128016447,0.4413079705434866,0.4361858315518061,0.44720353226558673,0.4609103256514837,0.4604324117551344,0.44129960120846423,0.4114276261155929,0.433504442338815,0.4587989267712751,0.47533351976073135,0.49914925125051024,0.504853364560101,0.5006649302049695,0.48876248443053294,0.4682542345912064,0.5278398532916877,0.6191192898548556,0.7138863373700426,0.7097150069577736,0.5948677616887386,0.4837159637075801,0.3706173672081108,0.2673017972131193,0.22455651409274058,0.2800735368516878,0.3689932498065649,0.43019116813360814,0.44744198195000306,0.45921521673394716,0.4621625869811279,0.457778760703591,0.43623290836427575,0.42573818089329185,0.4268379360873169,0.4626057090548721,0.4798265843650631,0.47595431996660365,0.4734007125047439,0.44765649799378204,0.4591686102313912,0.45016925978666844,0.4476502788791361,0.4411741588056133,0.4399797773685301,0.4219605101834918,0.3928867281902737,0.4093567469206487,0.42348459785050263,0.45744022259790196,0.44894651168824984,0.46946900266234426,0.47520939332951384,0.4695798163375393,0.4852332753535986,0.46806195514552495,0.5245173491260324,0.6202424654544187,0.7154990926237175,0.7030140757507124,0.5994692555090615,0.4921498998089153,0.38023680746653543,0.3157203198965908,0.34610920468268125,0.41236718884561707,0.4277626856171173,0.42313178258911144,No
0.4362323550437859,0.43513066766247377,0.46158788627157676,0.46765385090641054,0.4486117926096149,0.4420015552830705,0.4562390179430027,0.47392694983031003,0.46012483052848374,0.4523569092263964,0.44502955819805656,0.4126819110025721,0.36452380321029487,0.2922511783049231,0.33658301076891206,0.467142520050154,0.6100869312924351,0.7357309719165599,0.8759097426378251,0.99295099731183,0.9867811668123103,0.8808156655396955,0.758046681385256,0.633672303725934,0.5276760799889937,0.4730581393716644,0.4898648664958207,0.5188047920085763,0.47172896997827785,0.42973431160457753,0.4295290505448852,0.4663329749043488,0.47551477929063957,0.45635391973984785,0.44119946178088654,0.42960035467158164,0.4421336713642967,0.44154594407436853,0.42938521960232645,0.42918855596087013,0.42421212974031963,0.40506486930440566,0.40341972128641235,0.40717807442501375,0.4462704949277967,0.5005869186774383,0.5199161375355343,0.48761427375738453,0.4672928676007384,0.4798046496152768,0.48177240651014674,0.4962836683190659,0.46583125452292595,0.4460828784562798,0.4214815301000421,0.3721644330480389,0.3111205363531875,0.3292825064528282,0.4617909890981471,0.5925253231715795,0.7265665370784289,0.8693930064531541,0.9836247588936411,1.0,0.8908499557487222,0.7696736441164225,0.649407078099884,0.5457429988228881,0.48975956866565884,0.522551499017597,0.5229851374262564,0.47275842313142036,0.4245581393304816,0.4504053579838807,0.48970469035275244,0.48629408461581836,0.4805842924817396,0.4719017757173045,0.47804489982740606,0.46508192704655826,0.47695351926817153,0.4728103171212359,0.47328504271802263,0.4697115924029909,0.44701312009247474,0.45826444801564303,0.46733690520589466,0.4576950795501,0.472519776512752,0.4803382756456207,0.5025416316315479,0.5121647758163856,0.48307695961556263,0.47812938387998205,0.46142431125955774,0.4777420564773811,0.47265089441592156,0.45320790379293996,0.41077550117884964,0.3648123501969618,0.3051071401658749,0.2565302511460974,0.320729256057251,0.46127835433237774,0.5867218842722552,0.7279370848691933,0.8685223815954135,0.972084453914043,0.9602286575656986,0.846579269473696,0.7174604436989309,0.6012361949879805,0.5083530859006302,0.49718375518969893,0.534992701031868,0.5254299024292246,0.45976323369249616,0.41537770560818377,0.4568855432576857,0.4944839071000633,0.4915383704254843,0.4872959113017261,0.48287657794077443,0.49430984304023706,0.4756919476254975,0.4679168537785454,0.4548678815456011,0.4298508931241978,0.3809813921499412,0.38625913228044606,0.39306190308099165,0.39510792661519023,0.4121874406950443,0.40488918902563054,0.4046584295439821,0.40005739226424986,0.3737493313108242,0.32331254573139745,0.32416677527194615,0.3660184816738079,0.42744124301159836,0.41552242296048636,0.3962557853636781,0.4374570325829854,0.5351220659083848,0.6556096697660063,0.7359468659581507,0.6309584437405462,0.49095364809214725,0.365084273552136,0.2231025790128287,0.0977554007184751,0.0,0.026574919683780784,0.13393935401477464,0.2090437871154096,0.2804076978687746,0.3288606563600611,0.38252925964163875,0.3929466724866675,0.383006869007696,0.37808533505920927,0.39388348160250075,0.41291813129677646,0.42470336914355933,0.41574155064129936,0.3926716640040082,0.376131900099292,0.3901677603222584,0.37248711849894,0.36850575931644336,0.38130462923580666,0.3826403015552593,0.39292010009875167,0.38837608629041753,0.3864054098900551,0.3933181623355235,0.3990008971895991,0.39362668726523875,0.38987418017179465,0.35332659652380727,0.3202278813139525,0.34703992420437046,0.41016367899848305,0.43317874687238067,0.4194508724118853,0.4343026517675792,0.5174537408283024,0.6399736202762902,0.6824053416727098,0.5590273672863422,0.42948635487799436,0.2942515617992818,0.15445056120125145,0.04667537927774301,0.03068789419712159,0.1278982631704566,0.21275470604813407,0.29268381831615464,0.3445366706651063,0.38187902956739084,0.39299770423623936,0.3931047287311342,0.39650943331291977,0.4003130927378997,0.4012789832379635,0.42817565644251676,0.4185454914312352,0.3551920677288809,0.32617888427006836,0.3366986646789929,0.3321157325236399,0.3193829701657771,0.3385535386822909,0.34217043615511145,0.35160574917719956,0.35365273822714194,0.349561429710608,0.3265527523215468,0.3533211848429261,0.35396169250673015,0.36905470072322544,0.389018310920461,0.37715505807394845,0.3300186181954192,0.33187445863889575,0.375452311017364,0.4063122653837432,0.383136905935892,0.38499815427490436,0.43115313931205446,0.5258030058370968,0.6535962822506916,0.7000488447045861,0.5839631823957854,0.4535502225792918,0.30985764743627,0.18271853993145637,0.06209793037542388,0.022062171617924786,0.11004731716344107,0.19586632275051752,0.2752096948866125,0.3427269071635157,0.366439986848917,0.3776550117485442,0.3781614832176423,0.37685955025382967,0.3800246393931834,0.37034844467060335,0.3796976796732565,0.38734808754949857,0.3643945966439066,0.3472468247204885,0.3522549466625593,No
0.7248364596908761,0.7360384802969142,0.7560994067472333,0.8012174489646433,0.8221721169206855,0.8360516410689189,0.8505976232445123,0.8369911729316117,0.8412011821069016,0.874099698863301,0.906109788655135,0.9086520383823673,0.8857890990277448,0.8585986319314103,0.8340159694969558,0.7816068303938397,0.7104847876041445,0.63304973132504,0.553231408436264,0.463660903799864,0.3729841225007253,0.2922550442430707,0.33851057375648463,0.4376905792539707,0.5284431251753505,0.6269481560484989,0.7180684927299941,0.8036986490302274,0.8547400006700896,0.8560479915055719,0.8606784686723239,0.8245857469470057,0.7921851674181737,0.7973613490376941,0.8549241563480041,0.9025188507635782,0.9037884242495606,0.898511525093703,0.8762955696696351,0.8723252343455761,0.8664783447301019,0.8644925707995486,0.8778968763112089,0.8822893388303978,0.8956714195224971,0.9380945306405384,0.9760669395696702,0.9900082840422486,0.97336033396515,0.9539527481254957,0.9259325398906448,0.8888039715442118,0.8302420216726272,0.7471505973220551,0.6685129574838979,0.5834403941555755,0.49441822079547904,0.41312702869932605,0.4341814314359389,0.521840078757106,0.6215779036469036,0.7167681205993082,0.8072989265369468,0.8848246530039205,0.9074639757598291,0.932241443403085,0.9623395869822258,0.9353536123898996,0.8780330922650978,0.823189454993775,0.8162335790254402,0.862100561344161,0.8879589325537298,0.8883339650044648,0.8857441662028991,0.8947605187634406,0.8931196844297464,0.8786379442690679,0.8714745239880777,0.8690227222023628,0.8712411615760456,0.8574903768188042,0.8735130663301527,0.9089437547639732,0.9478667603053876,0.9622301392945654,0.9724620519732599,0.9744534412684371,0.9659778232270437,0.9256201976191203,0.8622836593921568,0.7798839854549959,0.6944892124005524,0.6086228591443243,0.5188058654280614,0.4354514113404002,0.44529859206799904,0.5426673042632382,0.6403279864013125,0.7319325149733682,0.8303565822681109,0.9194633139843622,0.989824611641217,0.9999999999999998,0.9872144488120054,0.9625050704291616,0.9199915865238888,0.8629836941917286,0.8332331605995631,0.8672208581820546,0.8756459786666191,0.8673105934759724,0.8620746473587657,0.8529663025023229,0.8367487271052838,0.8276097905693767,0.8197710297438376,0.8100386694687767,0.8150315093283023,0.8200792628269664,0.8051995207609648,0.7724089498113524,0.7548162700384384,0.7539426604860304,0.7692163370056988,0.7797301321742183,0.7935237156144026,0.8018730574485058,0.8142154064649996,0.8221200569828626,0.8301766770568249,0.807628342902653,0.7735433846781701,0.7803445409618857,0.8395188972167682,0.8948148168325416,0.9307271334131821,0.9455179569631003,0.9112168758492813,0.8205228483196974,0.7282677476126425,0.6303303378072445,0.539189189226547,0.4386713746553681,0.3435072787318809,0.2503170202225662,0.16608233548088736,0.16067221759623385,0.24236581489310938,0.33269208808618367,0.4266432437535095,0.5192853727820885,0.6181915898274857,0.7034409855183281,0.7844017137035515,0.8576790349086176,0.9153760785083926,0.9308649710286667,0.9145940164770627,0.8992959032253676,0.8678950346120369,0.8336274800094639,0.8104104987492444,0.8133934905277147,0.8238605845327551,0.8207629514573094,0.8251081783183836,0.8268059565626313,0.8355620296746908,0.8347313418592799,0.8405246662535661,0.8357993472833234,0.8070904831495282,0.7599186831980946,0.7285795749593158,0.76716152672228,0.829849770059764,0.8788439038595064,0.8873593292777209,0.8562311426432407,0.838668670514785,0.7625624080122513,0.6632238964984845,0.5616919871311044,0.4640114669108695,0.3724106205800428,0.2722862001922086,0.18133431122167276,0.10265969281079346,0.11140487823233913,0.19310396878974623,0.28406455679698084,0.3749458428762247,0.4655103821344906,0.5562021523110852,0.6514227450674579,0.7298373404172447,0.803785130425622,0.8558834226433671,0.8920864855417163,0.915989908712312,0.9402081578486989,0.9301295346818501,0.8903261695071987,0.8523332672417954,0.8289356360232871,0.8166677056955802,0.8126029385550619,0.8127103865988483,0.8179304737065298,0.8196959849978283,0.836321836733698,0.8521155762165289,0.8406615835735638,0.7866649882445682,0.730487429622378,0.7163592636407865,0.7553587820144709,0.7971362089884748,0.8088408258848843,0.7900183884629322,0.7388413551747275,0.6476561981712472,0.5537666360501776,0.45298808328941687,0.3611070592500847,0.26379266709258187,0.16420074263319617,0.07420984811740339,0.0,0.021870584254924053,0.11165302134639665,0.20211608052072538,0.2942138804374377,0.38333820740866464,0.47353613684858353,0.5583774064179436,0.6386636553676974,0.7167340083391622,0.7804160037207006,0.8112236292900146,0.8333399157255184,0.8592191026101272,0.855594435905479,0.8243139682432219,0.7890561329569044,0.7795954412293906,0.7882525568228329,0.7941847928136896,0.7847372186696469,0.7644861966162024,0.7297518584694489,0.6906309709396943,0.6803542530773472,0.6746339158772205,No
0.7020736174262212,0.6562646917013049,0.6229550827229597,0.5703370162669725,0.5493437849531975,0.6036827365797746,0.6206433049873046,0.6157147911965466,0.6313531315821588,0.6154264786245691,0.6071239193420133,0.5906430293667335,0.5812980798663205,0.5804258940291986,0.6116489187996357,0.624772919942933,0.629887898729574,0.6549006231131282,0.6703585572378468,0.6506053586199152,0.6492077444324393,0.7154273834945752,0.8057088783572399,0.8868151829251327,0.9541713614374703,0.9999999999999996,0.9983632229891781,0.9604976253091064,0.907555509214728,0.8610843057235829,0.8120059929968648,0.7772484644517834,0.7342041393916401,0.7323154499071101,0.7692007678234538,0.7062451810230228,0.6361417239075355,0.6872204565346496,0.6980492261756868,0.6704629662420722,0.6801809699360493,0.6551284872276422,0.6100906195277358,0.5622201024050315,0.5400807501822515,0.5831708967963132,0.6298150709650847,0.632736271133933,0.6262925363675733,0.6063852754869612,0.5856879629588572,0.5679512703460818,0.578402710213799,0.5973129919015041,0.606227788385088,0.5886167701354377,0.5976954704596955,0.5862557242285331,0.5650477643997083,0.6134136884696049,0.6967864749366766,0.7796756499436808,0.8645742253168138,0.9346878214754928,0.9790414059840669,0.971752809544951,0.9322823088708803,0.8894866112846267,0.8637822899385612,0.8147577819025495,0.7619405349569015,0.7234310027415414,0.6879627743226018,0.7408368752029424,0.7131917814297846,0.6149662623623606,0.616751033920059,0.6873885670167748,0.7126715657092917,0.6689738407938015,0.6750904174641881,0.6670753900927422,0.6134718470137144,0.5589220337864167,0.535571541470707,0.5654843524522666,0.6049612887288061,0.6055836837344235,0.5806971592284653,0.5589131448620974,0.5599585281492776,0.5803811420536689,0.6024081410465016,0.6077458611891591,0.6052959176215018,0.5986997963689729,0.5878504446916355,0.5641461914704862,0.6067892660727741,0.6939116166504049,0.7881851736439063,0.8695683121147435,0.9370135624758658,0.9854569350338598,0.9901034808128863,0.9584160042019048,0.906308988359338,0.8574583376059839,0.8234190095641796,0.7875043058085196,0.7450524956188009,0.7053085471205587,0.7431881560758655,0.6927129347682457,0.6470577600335257,0.7158110361916994,0.7463834213988725,0.7286196533408265,0.7254817235180862,0.7045941757595506,0.6510838875994156,0.609884315044646,0.6316469509255884,0.6373653506448194,0.6154421745937575,0.5403372500665271,0.45133857302913327,0.3517051454282596,0.21588134274864057,0.08165786965102484,0.005467190131165367,0.0,0.04689051020706225,0.17304043367823851,0.29517895636335956,0.40054482776159706,0.5254211960438675,0.5855611763691377,0.6460139604008659,0.703015492610453,0.7361730505640334,0.7781736950643281,0.8136206436403888,0.868679384628765,0.9022187589347426,0.8886568939491659,0.8298341497323967,0.7517808664553169,0.6694210422059563,0.5734481437794519,0.49166365220690755,0.4756935095248034,0.5087149006069489,0.5226446681640433,0.5278223193827265,0.5280519484347832,0.5146528068009162,0.49517981351072926,0.4753589271605416,0.4734989324329053,0.4915771547099901,0.5187190276877618,0.5295507394181107,0.4855128388804424,0.44006118693628826,0.44185134583708807,0.4855757165096448,0.5278780162282621,0.5828865766556581,0.5812893787369622,0.5889753930495174,0.5729075075118435,0.47796109436979295,0.36618814299162494,0.29107678840889006,0.3361406303728858,0.4541054609252755,0.546313346539351,0.5681881973634515,0.6339573439201218,0.6650022173324648,0.7066795368606162,0.7524410525354637,0.8008147865350899,0.836344597441713,0.8834959290461284,0.9070415758432566,0.8686669665304119,0.785273728184372,0.7022603424622482,0.6211322773133516,0.5401769209369403,0.483133368260126,0.48198294881226555,0.5168574270258959,0.5065557792280369,0.5164638979532845,0.5081667704267621,0.5062065137123892,0.48770698078610053,0.46388428011859695,0.5012977661265925,0.526447740062602,0.5326664812961881,0.5543145007663521,0.5617592882883229,0.548919800629807,0.5020202012724861,0.44521895832924807,0.4358164691804096,0.4857262745114874,0.5394381204370098,0.5782389468266129,0.5932638083544917,0.5783460413429595,0.5832518218338856,0.510095960231419,0.4013960711708062,0.3340679439283947,0.3914011857209414,0.5161663319765784,0.5824091809683263,0.6373929393222739,0.6780740149887214,0.7245855847733291,0.7564967963657341,0.8086253212915708,0.8590294222036907,0.9037667436435117,0.9140223147334638,0.8589729172769958,0.7816118500969513,0.6956339789479595,0.6205905572263588,0.5612922628956585,0.5589101433481791,0.588370325529636,0.5803180818037581,0.554572373842324,0.5348376140507383,0.5312403799584593,0.5028275041122634,0.49783119176299495,0.5085389998232199,0.5388686494157029,0.5346984681342248,0.547257247833064,0.540304279460575,0.520255806101479,0.4779752595942752,0.4493588398529269,0.4760254173128109,0.5337586642029657,0.5708492558937475,0.6274860736208816,No
0.875952396155407,0.8277961377621117,0.7618688736155224,0.6874275779850367,0.5990103080347065,0.5096294834402313,0.4158657093083957,0.35142038264758746,0.4159101512834589,0.514863437314069,0.6138003574218351,0.703850601219969,0.7975616617718431,0.8944982288989718,0.970639545670883,1.0,0.9658144758073819,0.9502210832125026,0.954691694339862,0.9549865260062527,0.9358016258212158,0.9271137392040094,0.9324143177359243,0.9347714665610147,0.9347775145751354,0.9347775145751354,0.9347765386312266,0.9337056238798809,0.9225617684404086,0.9169345384203749,0.917521849977152,0.9292071269378983,0.9172127225790998,0.8835432728864396,0.8303646753294842,0.777275930914302,0.7730502088971574,0.8109023991511068,0.8501220692078109,0.8809429596148313,0.8890958808247609,0.8849749575704515,0.8740094329077119,0.8534971784775394,0.8017836876777982,0.7330207870500991,0.6545574715154046,0.568026507392295,0.48337790446423057,0.5080049854997641,0.604017103436354,0.7029943619208714,0.7932774189452676,0.8863553850172621,0.966433634863165,0.974512676614903,0.936445435184527,0.9164055350664015,0.9263701212033499,0.9345785027077205,0.9343220000966457,0.9196072236313726,0.9088648744525698,0.9092170196893798,0.9150460214430809,0.9121439961891862,0.9050098250451728,0.8984856044406477,0.8894658035689034,0.8861791085869659,0.8868716585534431,0.8897572846960315,0.9043136088071035,0.9231821450595432,0.9301089192498986,0.9256192263668521,0.8785174350499907,0.8173523186961611,0.7684477790651165,0.7815606157890849,0.8225057964306606,0.855479912065658,0.8819636319290685,0.8767617069313691,0.8842992430922099,0.8733034443194372,0.8508681588302078,0.8033156870194476,0.741878212969048,0.6658487890157367,0.5705623577962338,0.4721272475337499,0.41421383243895704,0.4807991999127492,0.5687922890366575,0.6648097532408492,0.7627091187571526,0.8505964070445331,0.943626421117306,0.9852731969657254,0.9511520079348781,0.910896410366516,0.9110439660920413,0.9302104461929477,0.9392031051910923,0.9261818418829826,0.9141932509615383,0.903945581183109,0.8975556905214606,0.9039196922261432,0.904385571673656,0.9043856633861558,0.9045840185826934,0.9095519473519063,0.9052720555976546,0.9070686845451337,0.920300351409971,0.923390431381188,0.8906354134667303,0.8688345895545297,0.8622860227511708,0.8530758062783903,0.8527386914386548,0.8564645010546785,0.866505923507725,0.8568164633199777,0.8527427412012005,0.853025301203199,0.8617702629006385,0.8633468118660144,0.8719442597577607,0.8741155362791786,0.8845029600227958,0.8804674011819689,0.8687323298739891,0.8704557212996309,0.8937668306985325,0.842096819612379,0.7486533071984258,0.6592495607248203,0.5609223006330337,0.47143756633636835,0.37704498651165963,0.2792354939663497,0.19137493331674538,0.09727660801401194,0.026285397941461897,0.044354059172666105,0.13430831628467033,0.22229280367718784,0.3175631121576341,0.4056091349178965,0.5008395473815104,0.5883200659161676,0.6743080406902835,0.7452348497632744,0.7954178116923596,0.8221394108697226,0.835041746089161,0.8367668982715539,0.8168896625303268,0.7821335131330813,0.7414043532636989,0.7077800987247178,0.7249776847985188,0.7800656947269777,0.8436352087724468,0.8805403857066136,0.8790592853526928,0.8569709109299417,0.8477654109867578,0.8379721893179419,0.8378294565315025,0.8466937082692123,0.8526479773909634,0.8546390964352439,0.8661109812571426,0.8678580532743596,0.8631971556509006,0.864550787602731,0.8698212571881236,0.8850583740808355,0.8757055098205191,0.8716021402888843,0.8709142105466667,0.8959537000458107,0.840272199012527,0.7437440252149261,0.6559453470566714,0.55842158101572,0.45928346215009164,0.36732703648994125,0.2756378712970271,0.1801354309857146,0.09254633961730985,0.02132016548564586,0.0475852088700679,0.1382277845569051,0.22662959186674225,0.3223355180357401,0.4159000013502414,0.5056397688255023,0.594622369949775,0.677959091605687,0.7499855001782683,0.8099466538047597,0.8355061965152744,0.8379806286359526,0.8422558378129952,0.825311841877121,0.7881480544471087,0.7467811063962779,0.7070613709760893,0.6869948188763804,0.7308275127484598,0.7886704168323706,0.8493889796017298,0.8772092848100108,0.8726760677147705,0.8679574184335865,0.8689302980295337,0.8807548562814986,0.8944494432810659,0.8982527394849349,0.8942798418211577,0.8930540310143265,0.8857846857255756,0.8831201625023115,0.8831151930956462,0.8856927584871097,0.9080496542046856,0.9121196524905688,0.9022051946861982,0.9126885096877242,0.8784454649316036,0.7930415621145341,0.6941752999856674,0.594895312111714,0.49561526489438146,0.39639528027926696,0.30268505144447455,0.21262096040931255,0.11603357609622456,0.03297282832062387,0.0,0.0646328734178041,0.15635964594613783,0.25307555355714273,0.34088709938084394,0.4287114399506482,0.49769214016177976,0.5904025982887608,0.6762345074070253,0.7564791119941208,0.8171101334435895,No
0.5609629239649658,0.5307888017410374,0.5240242732738034,0.6213778958669556,0.7193566964251978,0.7577795127602327,0.6618732080831125,0.5213593655811462,0.3644077997139368,0.30261049296392795,0.4041552561570976,0.44182393677562626,0.40471566684472204,0.4331041018707502,0.4794362851716647,0.412690395846659,0.3830141424525202,0.4104444478532967,0.4128921234452436,0.40186863622412616,0.41608237463330244,0.4279345634316192,0.48362447254121665,0.504086836913749,0.4826954711361431,0.4549791224890045,0.4396187376367564,0.4551969685696342,0.5023666864989451,0.45661016553429423,0.4648461968087716,0.4766979071498971,0.47494263521987,0.45609902346934117,0.4470318077575497,0.4223369863880775,0.4945141155294257,0.6173506226608927,0.713799299262563,0.710512750915619,0.5908330535435917,0.4422049514737125,0.3288105183677388,0.4034910564535794,0.48984751578907115,0.5353605664719847,0.5340053390106858,0.512852721986123,0.48351455647438346,0.49086523894994905,0.5332595101534219,0.5699141503247658,0.5631284927301561,0.6074709772644065,0.6332072974082523,0.6861631495439307,0.6892707509365099,0.6220382300625182,0.6272436509971584,0.6291330294721593,0.6596749280523504,0.6869578385950792,0.6738824891454351,0.627965017418191,0.6440360826123701,0.6468279263157273,0.6626729085777372,0.7237744967370379,0.8250580702336023,0.9572534613475732,0.9482937844616819,0.833878970682461,0.7223772070355912,0.6067230434365936,0.6303670320773138,0.732992436537371,0.7887633902647204,0.8161160280286808,0.8486269733920535,0.7803818368127944,0.737296248817664,0.7162512907530383,0.6984464613886958,0.6764108971462335,0.6769453064726205,0.7172883508597332,0.771006045311502,0.739969083002725,0.719532437486599,0.6692278995221788,0.6180454393371013,0.6824101833538512,0.7334583635768386,0.6971231597196939,0.6692231966648352,0.671442046541852,0.7575173929743482,0.7890950544141777,0.7888557280643989,0.7965410042710666,0.8046565280008089,0.9093238916275386,1.0,0.9317078182025771,0.795353739183116,0.6828239086435213,0.7531802514942765,0.8551861407971417,0.8875340241745091,0.8803679456409812,0.8677019734779341,0.8219594818042157,0.7614525767987894,0.7663494257596319,0.8006962886058551,0.7810698972112338,0.7663028494397377,0.7727907839024564,0.7272882325288039,0.6891265247368228,0.6429354121577449,0.6500123699500504,0.756488038192634,0.8789661622413281,0.8802792990770625,0.7788884080246419,0.6577290806677212,0.5478686507981463,0.5210749738159501,0.5161014069934788,0.5490644184726756,0.6053584264566103,0.599241067325984,0.6313644561584111,0.6268211689570746,0.6430253588678596,0.6349046382748416,0.6475499551287065,0.680860570355188,0.7476752630141901,0.7687645791950288,0.7536239320051132,0.6442481849258472,0.4942681257709598,0.34591664046741144,0.2656107674618591,0.3637848530730716,0.5128841783889637,0.6472538914344863,0.7535694976864624,0.7060313365638331,0.6321458085845864,0.6469806529783826,0.6388229764785054,0.670257769682248,0.5985706246465288,0.5398199931632508,0.5428843203381382,0.5785416072786225,0.5756486030590287,0.5170410743696223,0.5223964755189447,0.5866639570559098,0.6216129400754511,0.6104389021909862,0.5486894312843873,0.5337646929505286,0.5246528078885682,0.5612555152571801,0.568852736391162,0.6015554714525813,0.6496011923650808,0.6873620881164362,0.6559456999783153,0.6056122386636531,0.47732813803211815,0.3550319486933491,0.3410409763021782,0.468309389107775,0.5934155213257704,0.6892688922816976,0.6783472518005498,0.5600799013734941,0.5406107420986892,0.5387487534927082,0.5108465333495502,0.5390701421083595,0.5155656677772944,0.49915029585001935,0.5063121021056842,0.5418639028492489,0.5201661221367555,0.5019504298558051,0.46634563734057455,0.5186419579698631,0.5134771524446187,0.5255837488162438,0.4675479775064879,0.4435176549193107,0.4012989189684735,0.4330669909028435,0.4127882461646202,0.384414045955336,0.35266178630435263,0.3952024580889475,0.4213717267657895,0.4250556714341327,0.3787287967619912,0.27230291808679663,0.12282911988256551,0.0031020051120949077,0.054623896309897724,0.19431498458877883,0.3298335186109993,0.4829789471596895,0.5833491715721539,0.49081501040023134,0.36693507584236507,0.29578619045842913,0.2877211444112673,0.3255458590179714,0.3308503452976348,0.33630776421543285,0.3570928062029042,0.31434196325560393,0.3511367874986826,0.30059217893880863,0.25519736258596026,0.30917625379928815,0.3150899125023434,0.33535432924050745,0.3704141727912651,0.34669690847012635,0.3051680197412301,0.28401480821524583,0.2656858798532946,0.26714579840191277,0.26621700863656983,0.26774282565154905,0.25929494366509953,0.3412159164412216,0.314854277432973,0.2892677538668771,0.28231762868838306,0.17407353488338728,0.04017411266415749,0.0,0.11030650346752502,0.25550941082687295,0.4055633217006518,0.5273178528508522,0.48561414609334896,0.3874153779945999,0.3896837703161262,0.4239546598696009,No
0.8424002619327864,0.8161298243388557,0.7620467815368708,0.6830367526432537,0.5980211072465045,0.5155155771059643,0.5248462054972023,0.6240073107145483,0.7074091273921577,0.778719633997919,0.8554187700699327,0.9052068551530195,0.8853464588385676,0.8633638532701313,0.8577548938810067,0.83241110274069,0.7879848400822753,0.8023609054546978,0.846742227629208,0.8540562792688224,0.8446699867576835,0.8505763400547963,0.8430131261260578,0.8510083071601293,0.838772824601256,0.854358654600688,0.873684306183401,0.8933128721311825,0.8993527321113979,0.8669382053436048,0.8176982221732232,0.8030765669770121,0.8536261789861161,0.9059447332438391,0.9393838241855794,0.9630630051023756,0.9675983755837294,0.9546682540569751,0.9213739679622097,0.8567359880152352,0.7798910540303245,0.6946547360568356,0.6083995273494096,0.5630446430359697,0.6430939389444237,0.7501658246615552,0.8556225983710128,0.9416897440178189,1.0000000000000002,0.9863550980907683,0.9324779430221029,0.9140892227049566,0.8836566988667978,0.8407542506548527,0.7974839567524652,0.815522267473715,0.8355846504373556,0.8097651363210561,0.804249174332955,0.7932289629193614,0.768597085721012,0.7470980863545515,0.7246613665551045,0.6999104561688625,0.680031259844809,0.663903864671038,0.6311956494955229,0.5798491995085275,0.5407880732056645,0.5581919394658341,0.5981619385034429,0.6286809419187314,0.6311309875538489,0.620299928576485,0.5998166918676195,0.5558926498656429,0.4930166441427202,0.4072594620407213,0.3162510949028017,0.23443063753542126,0.2338044525097509,0.3328703585351216,0.4333241719344334,0.5263975669531253,0.6030386808241637,0.641489026239529,0.5955031601010947,0.5725858994738429,0.5527957073285961,0.5064225992068312,0.4643815220358165,0.4508433526165663,0.5050022768759679,0.5249085698350402,0.5347791665085497,0.5361004158384117,0.5444538821303679,0.553840393894449,0.5619769619367603,0.5604521493003667,0.5797819808719951,0.5925383296321647,0.5643616452136657,0.5212718426721523,0.5264127717925347,0.5807454333971405,0.639881475286167,0.6862301146661889,0.7198695200777536,0.7404538119927293,0.7466505891141402,0.7608016646980718,0.7243117353459463,0.6427951018525719,0.5786415304960972,0.4980022643568518,0.4163498087505857,0.40794879735777,0.4999339509270999,0.5846490039355794,0.6734030827371609,0.7680099926618398,0.8507068930972201,0.891295349926178,0.8348270288980253,0.7492148746327272,0.6469258852612312,0.5618907365327883,0.4610861644611697,0.357929451597774,0.2847901392661003,0.2029609996333559,0.17037475398937674,0.23804302845227032,0.3022644766495073,0.33581905536784196,0.42917443244485987,0.5336929555969283,0.6081906483433579,0.6805113348486718,0.7028869316705284,0.6871132603585826,0.6738215464584105,0.63546077161231,0.5843624526903797,0.527328098364497,0.47445765938653817,0.45573006599962596,0.4934561629188907,0.5303168524835133,0.5307386486327708,0.5122944266657339,0.5053036714775268,0.49858605941656564,0.5012904747964575,0.48708422463657075,0.4870008036075568,0.48201380043942543,0.4615588649716378,0.4074341315637613,0.38065279495967874,0.4207087207711775,0.46357525490116225,0.5086053639221906,0.5310924297196851,0.535984826525367,0.4605173251255923,0.3610831416343585,0.2622849590243679,0.15972165465324628,0.06502196142979066,0.0,0.034410849251780284,0.11968647471596516,0.20933099329203997,0.2996035550794509,0.3857394853150409,0.46590286151244054,0.5290408513884242,0.5590650506638746,0.5766414462529241,0.5765672705523255,0.5510355216256972,0.5080679815474023,0.48373026407236286,0.5043522344228475,0.5520525182560838,0.5988761860142777,0.6287263550569173,0.6496657897329359,0.6727085715125527,0.6942491734430607,0.7182668856934893,0.7403528213101758,0.7484751809637757,0.766698816930975,0.7647227118229452,0.7292251612534202,0.7364484808608569,0.7875955029709181,0.8369732886850072,0.8613011465237854,0.8939924344001258,0.888208859083705,0.8031897426524919,0.6988221948271482,0.6032490774377874,0.4995902159962149,0.4085705811427178,0.3783170323715124,0.4475544162614098,0.5307686851681284,0.616001410458124,0.7018042601939263,0.7849898636177459,0.8617647978235381,0.9013117735049525,0.9178813454833852,0.9109012101847427,0.8887821966074878,0.8454534131157196,0.7930990332325638,0.7451482552578017,0.7479387962756336,0.7936383823849564,0.8313265092473647,0.8307591011232474,0.8104642379431335,0.7896912111390078,0.7863517556507873,0.7856809032419958,0.790323555901171,0.7910658112150413,0.7979392236482676,0.7829002955021249,0.7345032272244227,0.7122311105405219,0.7535242933226416,0.7900575946494091,0.8063259980425002,0.8189009688723281,0.7925688656579848,0.6975488029185393,0.6020414431687187,0.49758114875897497,0.4015922756821777,0.3053048345813212,0.26250444386148986,0.3335320458193005,0.42142786320033676,0.5095615609346373,0.5912184867299024,0.6749527215094007,0.7464356666457805,0.7846844183756405,No
0.7386609546237057,0.7499908170359424,0.7793280302537076,0.7963016510872727,0.7601902798296267,0.7714183221970359,0.750880165694177,0.6655496372940641,0.563484929848256,0.44037779908867325,0.46400713721965126,0.6157659898177705,0.7422840968186275,0.793430664657147,0.8109465218391039,0.7894783259215394,0.7694935429424801,0.6918806372112796,0.5936674430405153,0.5374006420124262,0.5750170469589841,0.6921635188930901,0.7629605677449653,0.7905328860906478,0.7695961654193448,0.7824597933221478,0.762693925969975,0.7715542195777614,0.7738768764947075,0.7267764566093735,0.7145720698283,0.7484818837553693,0.7510045512556092,0.7461475679703771,0.7550089841600451,0.7803962223760363,0.7827332112410366,0.7548058939042646,0.6999412919522818,0.6255333300936083,0.5709781880198808,0.5712876250961916,0.6179713243296483,0.6716157261804598,0.7415003756345557,0.7835136847127151,0.7825569473815435,0.8394675797287379,0.8552328518581129,0.8769993893037169,0.9058526525940049,0.8473730402933066,0.7675313611985501,0.6463924174602331,0.49421420169984476,0.43130324661570185,0.5607650801897721,0.7165395963415557,0.8553915323372943,0.9276561000274484,0.9232992322580751,0.9510016415297518,1.0,0.9320466653721491,0.8396614414346288,0.7420171660583073,0.6649468397919973,0.6949415085325272,0.7626597969736446,0.8346843640747874,0.8465122111694399,0.8755088200760026,0.8772343924463799,0.8605448088315075,0.8602186756712253,0.8730600399340096,0.8518680583602052,0.8467371831241213,0.8209683174384601,0.7930702311214954,0.7432476325376332,0.7268807810123157,0.6975037098648391,0.6552869089786366,0.5818761997761026,0.5380841929511133,0.536316940397068,0.5788264918869483,0.6590139992254684,0.7281432059297313,0.8065667546765054,0.8222900869123713,0.8738825405825388,0.9215927457606821,0.9290948873305869,0.9121667897064958,0.8830220817716112,0.8020217987258658,0.7118653642217936,0.5720508963676298,0.428629165262274,0.43489793805952637,0.5755398863337291,0.7252431150262,0.8316433720901548,0.8651720805271728,0.8797085082032234,0.8826580884005502,0.8249278446445594,0.7170064153985578,0.6173432090694222,0.5617142355271323,0.6050000483633422,0.6958951608614115,0.7525137073192862,0.7504858854598746,0.7569424704758072,0.7593456619262993,0.7428121539846666,0.7619726404276266,0.7504052032941724,0.7475388035985375,0.7188508481923215,0.7361191482706699,0.7559614590427302,0.7404208774264678,0.7509057367299876,0.673514405904025,0.6393295754376256,0.6332462025213275,0.6233396727108405,0.6106174266630156,0.5964783878750444,0.6188785135482622,0.6384913540681127,0.6381503160270148,0.6419280081167429,0.6368120421917913,0.6364272151707162,0.6227260323185808,0.5641338480622249,0.48477632898982215,0.4400063993889063,0.46805771129238494,0.5429914990129339,0.6569298717050742,0.7410660920390519,0.7516881899264307,0.7036218643007963,0.5940174279282093,0.4428802808765875,0.30185205794970393,0.16434968372303072,0.10395193850243878,0.2197241541338668,0.37488635580754615,0.5177431421419252,0.6465714914663492,0.7402141211675035,0.7856628034906228,0.8007360715282577,0.7677878349907896,0.7335186155738143,0.700410889713126,0.640921841517021,0.5655845286517955,0.4896614493813356,0.4326419256703371,0.3833894043874597,0.4023701624424616,0.4673405541498967,0.5462377239460601,0.5893972298535957,0.6229276744381425,0.6418879179219772,0.6875157609913058,0.7029747949042529,0.7230189000738294,0.753549006685077,0.7678866395661998,0.7541194841143399,0.7583924571679601,0.7677451347423929,0.7507850004018248,0.696388356853765,0.6230594571802008,0.5663189481473658,0.5447966507808939,0.6175639014688485,0.7158004446393456,0.8120049059092569,0.8035729510789178,0.8030235176110398,0.7437654534835803,0.6285752981636232,0.4695243730315086,0.3273901641099215,0.1791513403338918,0.09939230714378855,0.1924812675798977,0.3461477636145043,0.4975247419730815,0.6398485631718245,0.7302232769089931,0.7619592743967454,0.7443419212544233,0.7079851477510521,0.6925249150999289,0.6677238818333233,0.653916774034383,0.5771328732125669,0.5132605877806284,0.45689598038252655,0.4429252670369159,0.4844264362270314,0.5723214940266326,0.6345082376069469,0.6365668297723914,0.6417720417493484,0.6382310288666524,0.627627017787872,0.6177329571515973,0.596302349138373,0.6162805575788601,0.6333311633226133,0.6459189749971186,0.6604518715126693,0.6627060744555111,0.658944955735647,0.674110110274464,0.639749604658002,0.5472024875970698,0.44763533856424687,0.4156162624704338,0.4562054976501777,0.5467796725211125,0.6311002452740047,0.6863305172079031,0.7002401766723851,0.6482725116441284,0.5528948038002799,0.399854054875747,0.2339982135651617,0.0741303301796572,0.0,0.09016763093511138,0.23996610966588694,0.39598272849085614,0.5319283112859923,0.6125909279537431,0.6319648117059415,0.6772386645521058,0.6703122705585685,0.6450063244119892,0.6348493866455094,No
0.7020169945664021,0.6183205337792357,0.5661276716945407,0.5331095362484044,0.46998689139789906,0.3393411875527912,0.298566298018093,0.35248236950419365,0.4532183980236715,0.5209899195079677,0.48855978012735957,0.47465141727602234,0.47188109400160894,0.46789308759173576,0.43674654977962835,0.4179233987668871,0.4185691817972872,0.38912921987606364,0.37773312278133897,0.34150635612131897,0.35817825724850305,0.38701591649445444,0.41311866423879184,0.4204919335329089,0.4286692319327452,0.4592408375241197,0.4696919056033364,0.5298429471136279,0.6042672265042333,0.6224077750417516,0.608874748788728,0.614034999405038,0.5997295966446652,0.5825390842604685,0.5725906286591398,0.5359872326175301,0.5027823483672345,0.478055761315221,0.4993410015989612,0.4820580750654875,0.6015998815084265,0.6656422118746059,0.5808218477499354,0.5699075181755875,0.5480171146941659,0.4715290077472263,0.38601477951975394,0.34736332649503243,0.44721670854297013,0.5147306564327847,0.5983564604343767,0.6005072049232387,0.5477132624409782,0.6052506718656518,0.6167260597648925,0.5889015453354434,0.5010042806890302,0.5124689684054031,0.4925375818550046,0.46728673881341454,0.47867445565393485,0.48436633993821854,0.46511291219093653,0.4620951405589091,0.3762578396504983,0.3728129265513944,0.3532817424413084,0.40181838983065443,0.44222727248538884,0.5198361154701976,0.5801508712525569,0.5773848262785792,0.5404583607525639,0.5639382024484734,0.5488166762658535,0.533518815228855,0.5133009049989292,0.5126407243864533,0.6738856301415899,0.8762084293033139,0.9999999999999991,0.916086689539676,0.7323538380230152,0.570681525469749,0.5141953146574787,0.445083461688875,0.4358764122202663,0.4099277689077043,0.30214835918269234,0.31408243332115937,0.35921057950015456,0.41756078213678993,0.5179846960600267,0.533653807036564,0.5547060437965099,0.6218645610745321,0.5924069960584939,0.6190893565627098,0.606132924104009,0.5400412333657725,0.5298196879519947,0.4914718118999142,0.4628058803563908,0.4862496188124661,0.5257250504187878,0.49749118043229945,0.4451449814384718,0.4846764818348186,0.516111807168607,0.5157280809561202,0.5740907777380366,0.5953588806569341,0.622694151686793,0.6143430779368844,0.6256920628439326,0.5775809780568073,0.53641926008497,0.5542552956517133,0.5580821399540481,0.504714918171806,0.5704150581564766,0.7559096298389614,0.9296050357124868,0.9299023579814589,0.7646956171542945,0.6379852149037957,0.6077405769672586,0.5146368062505102,0.4605056477040774,0.36495089196891595,0.3273899477812856,0.3881666102148822,0.3690996190100302,0.349907004707366,0.3981594295023294,0.2998737808283227,0.31991686388398666,0.38368535469130993,0.4148600744334656,0.38672803953232826,0.3927549343458745,0.45501051628707057,0.4652934917448617,0.4584870501386762,0.4202150460449099,0.3868792360717377,0.3410876619537353,0.34517202242780964,0.32390453918188555,0.2835412194115383,0.3350485303395727,0.365859653721599,0.3234800747341193,0.2853711807132795,0.35200151094785337,0.36769507999306494,0.374658576309268,0.4322316046912684,0.43064695710376544,0.4427579799828054,0.4121419609837398,0.36838567990248183,0.3661843482661231,0.30388732637612836,0.1847746188296009,0.16995410345873552,0.13422434394384375,0.15548963276286543,0.2557500963490371,0.25461879706688517,0.23632154449179765,0.32229628265277555,0.32957439033889546,0.33661598262342896,0.25420972979994083,0.25124119951502877,0.32532385619424264,0.39597875625846957,0.3469615615689312,0.30310362238687905,0.3607297898580599,0.337142785592353,0.3782717147287551,0.410781990848041,0.3460508927641497,0.3097789970060445,0.22505459973693043,0.14392990675792117,0.15727905173862933,0.1720590293951032,0.1483385142174214,0.19468877043269828,0.3089996529418091,0.30480093156286525,0.2488710909724272,0.2906691651825337,0.27783845959112785,0.310014861456434,0.2836730825364411,0.3488279350434942,0.4053129129425779,0.37559115471283366,0.4199638471834257,0.4241439895758097,0.3578680088974524,0.24468087998506505,0.18314671678593886,0.17976859021374292,0.23024235810457938,0.32682722976176226,0.38981767718373295,0.39932349982718574,0.41658795859282005,0.39869445964821626,0.2687726671071049,0.08497138066480048,0.0,0.11452739645841348,0.19717171108706388,0.31603737946895105,0.3821836280424362,0.4222000386835818,0.4574919647629523,0.43440058879031174,0.4630377357517359,0.46529098000726155,0.45338513359747434,0.3806733934898672,0.31367267620436756,0.2984962054370275,0.27251983498862753,0.25050963626692724,0.2697225061337454,0.25293164732006446,0.22231748944605467,0.2214445388172548,0.23489056737941993,0.23193487530455137,0.2488868721508002,0.23910326151604977,0.26846163003653434,0.296331335865915,0.3186725474406886,0.3189446306791579,0.324329295146879,0.3434800162247802,0.24980684470919545,0.16497106189769983,0.13257323516134445,0.1715493537578876,0.2564467787718776,0.36391652619311987,0.41012293762438023,0.4417248127572604,0.5052265308272181,No
0.7262064805666624,0.7891677460802513,0.8325282252334016,0.8304336266130146,0.8409392603905275,0.8388391058817852,0.826465345678518,0.8260811613274672,0.8193736882544984,0.805981155012776,0.7745942618154462,0.7341260892993922,0.7262823654048018,0.7565416237620517,0.788743301790507,0.8098706829732936,0.8327278285129962,0.8454982087604161,0.8637631986334071,0.8990181221558764,0.9481931880847303,0.9165772977129647,0.8234508602165014,0.7206048484297947,0.6131692127890176,0.5118684395437079,0.5236352564557576,0.6385982032562136,0.7579474921061466,0.8696935177131788,0.9711588654447891,1.0,0.9251234997063249,0.8595325450102766,0.8328531716896914,0.8059007026133846,0.7691128069319939,0.7290523628446675,0.7336757010525199,0.7788641352364198,0.8291445333721312,0.851710452106964,0.8455119578134713,0.8370441258847938,0.8352986438396242,0.8271973765287157,0.8223561603758189,0.8135246038339279,0.7738414837230847,0.7293024769264664,0.7347117268196333,0.7629551577491878,0.7932110252042395,0.8207360240748396,0.8224326652490825,0.8272990854975202,0.8482142868648195,0.8930116227301346,0.8923493192278111,0.8118976179074253,0.7102814520890988,0.6043124107214943,0.5104821457739277,0.5587672601177132,0.6698513972374558,0.7770733150665738,0.8872459132323205,0.9405508598604069,0.8736567725087383,0.8131212725393144,0.8148838774484681,0.7949219473979499,0.7602318594813906,0.7443105120723903,0.7442276303601947,0.7877268445136503,0.8057624274303672,0.8273332508426177,0.8268317540879262,0.8295477895694039,0.8225247161441378,0.8091206802317155,0.8161038015112263,0.8059553984537229,0.7849272542439167,0.769479241650306,0.7219882962844482,0.6988647017197089,0.7247808435582508,0.760528170784351,0.782146789116025,0.8014088609614927,0.8276391534495131,0.8417938908643889,0.8700712337152541,0.9258188304858517,0.8887215120700165,0.7939520506760198,0.6886312178404448,0.5831136543610582,0.47826885436977573,0.3677235660787268,0.35888343966349323,0.47070130265430166,0.5821161970295665,0.6906859910262253,0.8097158289181414,0.9126629507918502,0.9101015851288561,0.8512799636465092,0.8111800781172307,0.7897993664300422,0.7445760991563524,0.6936657703412101,0.6601803054402198,0.6948918026859059,0.7567393265374682,0.7847233887896854,0.8008811026570686,0.8105521836786207,0.8135895355124951,0.8179441750830514,0.8344750521800397,0.8382309981205363,0.8066471813640783,0.7746223625005126,0.7903805868808282,0.7753590543376312,0.7592929330392941,0.7567840848783813,0.7537176088362143,0.7334171763656281,0.7035436046685093,0.643154580737634,0.6054013124874804,0.6152858433978801,0.6609465228147156,0.7131714252842696,0.7416519667737935,0.7665370983852426,0.7479099152956232,0.6421684988181964,0.5229454537584166,0.41246427004651,0.30298368707682677,0.18386435344084662,0.07264353766795217,0.0,0.04053894099761379,0.12256242654563643,0.22237072798395818,0.3363432364919765,0.44926714196832673,0.555841299845965,0.6618503418086616,0.7608264545028467,0.7960039060116477,0.7776317347085362,0.7641813401987987,0.7408956763551124,0.718929394261751,0.7000775835494033,0.663808753901884,0.632445506137914,0.6509802518685293,0.6909223054432112,0.7264499254450563,0.7323800876642581,0.7539723755002554,0.7493566786462704,0.7533030789336608,0.7567857385708638,0.7602890231510551,0.7666332877245914,0.7559199200771065,0.7238928441451744,0.6712015641201408,0.680191451834042,0.6852574041572113,0.7117584843233407,0.7441722233814696,0.7427404233859121,0.7399011483641504,0.6649287715810357,0.5614560087382436,0.4437682454652694,0.3248568130987217,0.21790233064654974,0.1208132912689015,0.10004266839589171,0.18660074559284956,0.29080879897564493,0.4049158043670613,0.5097231286135169,0.6186112753354949,0.7275593638571363,0.8083861744798067,0.7956083660674893,0.7739889209895421,0.7679696129509912,0.7598095619163332,0.7458036141848421,0.7168032806156068,0.6903182225953914,0.663806800614863,0.6867979913220918,0.7300072330986502,0.7630793067515556,0.7735039691913004,0.770378634168035,0.7761763597562257,0.78244672164861,0.7871122174648093,0.7796684022928213,0.7367198265454102,0.6877832452401131,0.6638033084707544,0.6765274109032631,0.7242335658369101,0.7629174041365441,0.7782143482395654,0.800264527702855,0.7489537138275986,0.6338198546501621,0.5146218834863872,0.40533629136610383,0.2954816209664912,0.1947334979028006,0.1592063788640985,0.23743735499402652,0.3474764382092399,0.45379039484787276,0.563187960247495,0.6683836448357345,0.7725426127279573,0.8354485834103009,0.8107742357703973,0.792417971401997,0.7735163502819971,0.7459379367965364,0.7290122904104104,0.6955158190765038,0.6778095225794689,0.6501443662296311,0.6768753835751564,0.7195545582225287,0.7456119685399258,0.756701999875526,0.7665793796980687,0.786013472301808,0.7940088392451736,0.7798471420690767,0.7616625549985572,0.7080238093034725,0.6515232797310233,No
0.5229679889124377,0.5531900602335416,0.5690418419435948,0.5698455298274694,0.5582364940846798,0.5534379779995864,0.5346753579561363,0.5299993986906433,0.5488459076675296,0.5565086833598745,0.5589170020094549,0.5598634558602282,0.5701712548460294,0.5758151245489884,0.5708675985915965,0.5197530227480742,0.4386961805314553,0.3758200951911399,0.43062534474490155,0.5327021119283768,0.6470575663461924,0.7556339167881689,0.8401732721918442,0.8318089505242634,0.7387519999348471,0.6436066136323166,0.5799129026848289,0.549907955761141,0.5631828927653006,0.5623975352184085,0.5168264744821971,0.5291979020352118,0.5702856717060496,0.5734217835707458,0.5821006732958001,0.5943659697131891,0.6016749493607128,0.6123158995934754,0.6110950872772611,0.5986573817708192,0.620946113115397,0.6675418564664506,0.6651377633029565,0.6472801258398841,0.6430379085851743,0.6332017539285397,0.6213816991414212,0.6100607881112694,0.6187018766068051,0.6279873028235738,0.6271372020990107,0.6301580805928402,0.6293771805623636,0.6263132284215347,0.6238503399274116,0.6233659171060402,0.5763243428070002,0.5001655957014051,0.4143575002719375,0.42176700992445637,0.5189395442702422,0.6311499419888027,0.7464951056532794,0.8535132546091173,0.9490054443401643,0.9574023260537912,0.8607135586219843,0.7664560278753503,0.6811293127065521,0.6440174716890406,0.6555255027448994,0.6442190559132297,0.6196560555528743,0.6340433148186002,0.662111804363847,0.6731187032102404,0.6739321397586173,0.690034441693038,0.6798123756013612,0.6806877086513272,0.6929894280148696,0.6938621451050788,0.7136091925378008,0.7422607867425262,0.7188483025123542,0.7128727535918467,0.7255531539549462,0.7053293366454176,0.7053800946919129,0.6962846352614505,0.6777183243147484,0.6593363754215571,0.6364378548582637,0.6136425126463503,0.6041394039469163,0.5931376995288806,0.5368820231787321,0.45466348766163245,0.39882871123616237,0.47126306762781667,0.586307611853496,0.698370150066919,0.8016809831086231,0.9150622348245738,1.0,0.977089785610036,0.8823807376597377,0.7815276300292138,0.6936629766055233,0.6323735636984726,0.602497685734475,0.5712477767404911,0.5155312968247197,0.4917327901336015,0.5001328128033005,0.5093710467928041,0.5241552141948791,0.5235147299922267,0.49613104203576563,0.4384567323392168,0.36162302371007016,0.252763759214957,0.14136443031217993,0.09282854871800561,0.1443401998888043,0.255462096724977,0.3608168031893495,0.38542669364568427,0.3028695268462558,0.18861942575525736,0.10223263502517588,0.09300635129448187,0.15668335517139376,0.2695328738084286,0.3713641732006647,0.39005614890503404,0.30552624536187967,0.19123829052987062,0.10331133330873721,0.09032201699957909,0.14000250298833894,0.2500564594144641,0.35624225745351534,0.39607565666167366,0.42859506965491345,0.47324323961533565,0.5065320384050969,0.5354844204089666,0.599692432262823,0.6718523452970411,0.6456682579173885,0.544676162432979,0.42991112025856326,0.3228821602730392,0.23396518423914436,0.23981738813544862,0.32687157238078335,0.4068091015773061,0.48440439909459343,0.5027319480044965,0.5085806081901785,0.5250251962826478,0.5428826282438899,0.5721970805184262,0.5838620198214568,0.5937653098470355,0.5967324732456758,0.6104164950013118,0.6019468784631434,0.6139071443338748,0.6168554801673318,0.6157759060988393,0.6039723186338617,0.5790496599527235,0.5714940839170253,0.5698392922036244,0.5627553336968565,0.5696016440039755,0.5624750639952611,0.5492511375914573,0.5195821858398935,0.5095549145469236,0.5124269284874332,0.5596274475214611,0.5500049286582582,0.5403793818667522,0.56708773272049,0.6451468325147451,0.7152429868761421,0.6378329571254522,0.5227130407594087,0.41232743789206827,0.307874453243524,0.1975478922699061,0.15554553467243837,0.22135298838330897,0.3045819004160468,0.40023340950489805,0.4759896899843672,0.49664724044256703,0.5027050607186854,0.5059614177843188,0.522335044173492,0.5156755643017692,0.5088979426638196,0.4968177251546133,0.5076963417772462,0.5186718976496385,0.5390522475313633,0.533014954287724,0.5408653188340904,0.5493166432542496,0.5441843329945635,0.5078718231827386,0.4837442528783624,0.5025552446974726,0.5017441994651879,0.4803243814617786,0.4795127542278612,0.46758196498308147,0.4668613841588307,0.4273357519924321,0.4129190497723525,0.4377754777132665,0.4502256085926746,0.45826020529446865,0.4891034971147148,0.5500670889782655,0.6075294465917622,0.5333574452437997,0.4185645143045744,0.31271093749209067,0.2039198161496243,0.08959651904957333,0.0,0.0018358838501595365,0.09720063936930812,0.20040126763435673,0.29627683623756873,0.38079161917739945,0.4397035143510104,0.4449098392801427,0.4429854567358795,0.4455565936765158,0.44472743413497406,0.4377260714346165,0.42274073381018074,0.4040932030788804,0.422779075699101,0.44771422781559256,0.4592262527321256,0.47099684101022454,0.4539875180244226,0.4332017698377806,0.41918632627513963,No
0.1521741311527922,0.16773612280227423,0.18244557270353035,0.18744137571456942,0.19963129146608782,0.17383560147001464,0.16798422913357403,0.16390626471235548,0.16337359659007422,0.15733025864264727,0.17084365487837472,0.18426536208544153,0.2000673374231292,0.19907339503694876,0.2028627208568632,0.2646385188167848,0.35193400255786944,0.4436551764911254,0.5447033945279478,0.6462701894720442,0.752074063346583,0.8626091465985337,0.9639464401586495,0.9999999999999996,0.9119177800218039,0.800595707240281,0.6963773955554737,0.5821734141288086,0.4870999547203092,0.38786124429415114,0.2874207497748338,0.24116422258193992,0.2656002244481406,0.27088979778134226,0.24912987227507033,0.22341254904281937,0.18390664754369324,0.1988270279125537,0.2118424475981553,0.20915419495528598,0.18700936957550462,0.18067404596708503,0.17146314317370281,0.16424392397139798,0.17054639943439698,0.17528153411689784,0.1883637427570637,0.19068756616833316,0.20186327924735714,0.18058552815622653,0.18182204843843408,0.20397446133561514,0.20962658155109226,0.18644983876234988,0.18498022656613378,0.17325500654237436,0.17521464548567023,0.17966256192621088,0.16457306455968634,0.19814830952396312,0.2847649657427276,0.3799135721807856,0.4817321469540019,0.5925132307848875,0.6965625067883936,0.8108439513917598,0.89266466872663,0.8789497637749091,0.7852796354245042,0.6725405571037104,0.5696688063889677,0.45636870347418057,0.35406258451258754,0.24953677441820377,0.1873214520922568,0.18575015324608968,0.20478216481618894,0.18984817676088017,0.15391727094047924,0.10791457582935315,0.12623132867637432,0.14810396085608302,0.15885728000603283,0.15864429510408584,0.15717525852670278,0.1565327750951675,0.1357905561756243,0.14075937791205595,0.14319841133468492,0.14844877913216914,0.15907813141603855,0.14122760238597154,0.13629722851888015,0.13868063828577748,0.1460246304528976,0.16706931944327907,0.16151695713029968,0.13380652534622994,0.13109391609402632,0.12745704765024302,0.1056865985273836,0.12332312692838299,0.16154750044629784,0.2372204303347516,0.3233571528598702,0.4279722363806515,0.5325885537376256,0.6435115046919182,0.7553615521901778,0.8587854489699009,0.9419646545369944,0.8968873952653156,0.7927600036971643,0.6838800868292809,0.5732024308330312,0.47758350142035555,0.37415586168379855,0.2725875237820148,0.1915117748392512,0.19068713311564522,0.19992257682963288,0.1892586675711012,0.14474203353419934,0.1360676643293819,0.1628606163384423,0.17148450122112147,0.17118167885503333,0.1617471778156676,0.15942500560355155,0.1350163785832672,0.14052000350897487,0.15684933805941936,0.17044874684116484,0.15476755694512612,0.15233171163609915,0.15580455949951322,0.10571632671516662,0.06951534569290185,0.08340395675522583,0.0882635118067161,0.08153498284432414,0.06752783629901948,0.075791393441071,0.08575335472596057,0.08802795860351065,0.09740430583042903,0.10168867013676364,0.08113616763313303,0.06823573711602338,0.07354054504865593,0.10831959227568344,0.12251458770808421,0.09999210032544914,0.02202507300214629,0.0,0.07207170148845554,0.17036829861933578,0.2777162405039868,0.377908466269147,0.40310188482775633,0.3109584311364606,0.22339570545492604,0.1418803939826372,0.07963287547087461,0.04977755903526093,0.026277948069763912,0.05090098635709284,0.051481492748007174,0.06163002951783714,0.06553556851961595,0.08483322243207736,0.07713998953747714,0.05832732811449226,0.05500123349036201,0.06281890942984214,0.07108934332265093,0.07303862179432041,0.057969937360212054,0.05527350922788665,0.06383092555129677,0.07904088044951596,0.07768975676205692,0.08567970833107674,0.08393913092967908,0.07437260431083992,0.04493196707626579,0.034294309741961904,0.07843525680035013,0.11678978747341029,0.13116566927301543,0.09924625525468578,0.05415852552285516,0.08674484405541794,0.19056564503840212,0.2926114682370815,0.3862468463357809,0.4651865498821395,0.48518916030588244,0.3899747231807731,0.29225289291166945,0.20288333881379872,0.12913003846467053,0.0935870308774489,0.0929374846528872,0.1102399156521554,0.10891773247309855,0.10897521729874704,0.1165539456909328,0.12074193899814123,0.1349227639024555,0.12410540172746964,0.11099822883948418,0.11043408432919577,0.10874250136996988,0.10831602155305253,0.10977340160312021,0.10410321235710018,0.10278950805407927,0.10564224934117217,0.10941551910795555,0.11948367875404875,0.12752075697267218,0.14616868823865126,0.15651642346238281,0.12277289874091046,0.10539702278536511,0.13823958852929374,0.17313333388908259,0.19609666260413583,0.17800638798085888,0.09976324457173469,0.0789087166757163,0.14833160958417846,0.2503183097617496,0.35279336228652847,0.45318942204151025,0.4630270385545505,0.372948615605869,0.28418542409135217,0.20173089907570763,0.14602957866385102,0.12393975198241192,0.12285923184393033,0.11343885612069737,0.10269973663331466,0.09315225469153665,0.09557311475543973,0.09150414319316891,0.09809747953909742,0.11253291909740826,0.11208726503770805,0.121217321184798,0.10893310911588383,0.09733850201463978,0.06808513532055605,No
0.5882741729622398,0.5997587665131787,0.6361617387800709,0.6560460899142084,0.6442472690676606,0.6222503379495654,0.6244442088866178,0.6144928805661021,0.6060769215474426,0.583403674774019,0.5377514804499,0.47321733629257245,0.388858827110961,0.32235710121762473,0.24892911820557195,0.2923991227289213,0.4039066445082593,0.5063725632673872,0.6108319969898401,0.710179967304049,0.8173405184289564,0.9113054636401343,0.9472847092817211,0.8806593247335193,0.7999802543635681,0.7146889012535045,0.6203150944244822,0.5825426063845551,0.5758186429126311,0.5535688114623261,0.5195272745212205,0.5152114859057244,0.5242871161142117,0.5463804983671006,0.5590007497222267,0.5640196321007753,0.5600364825331847,0.554712978948817,0.5606932003133487,0.5509281259413177,0.5504712656317126,0.5412826713025427,0.5254076269924597,0.5224218314923208,0.5322386696193817,0.5453929456552165,0.5419361899922999,0.5485274526888486,0.5473584713296833,0.5867066348905094,0.630263366773288,0.6935300476042761,0.7345795422064341,0.7129935397992151,0.6881645029119192,0.6772529717484614,0.659974277223276,0.6489161225795255,0.6271745769686601,0.5801286834456363,0.5141045184713087,0.42622082174861253,0.3502896030933087,0.2973322432539942,0.3606718248125369,0.4735420163214443,0.5841818499080325,0.6836585389982361,0.7902960985016096,0.8904240027907253,0.983327708966288,1.0,0.9152833901349942,0.8164315286731121,0.7192518833478854,0.6838869598755135,0.6724497841528247,0.6319783257810032,0.5966562127200712,0.5743147647895825,0.6062092159146113,0.6317642081137085,0.6373755321205326,0.638188042192092,0.6309041550807422,0.6360409842487846,0.6361942903770901,0.629433436512365,0.6189350822467237,0.6038503231085883,0.5986659176905453,0.5820457277816251,0.5808866846415275,0.5993835779258805,0.5889467137904605,0.5886199918974375,0.6020179993552137,0.6329254115104779,0.657868547509227,0.656970874328513,0.6458370930189998,0.6229580042599001,0.6167450262469361,0.6090494430785598,0.593661868714443,0.5610742959727597,0.4985988134917365,0.40833238793172555,0.316736002776417,0.2421021499015512,0.2797451169235403,0.3832115305362329,0.4847744710587407,0.5885960636623753,0.6926096621040103,0.7917780893530213,0.8330530082035383,0.7781586341457172,0.7627234172236679,0.7361456470316758,0.7033659874705318,0.6683329764842019,0.6337106384918556,0.6337332631095434,0.6734262179153117,0.6803680865435444,0.679342962901671,0.6761775586873999,0.6569556045926142,0.6300584824997437,0.601496323377853,0.6069063742519245,0.6083934247885536,0.6027293841956847,0.5996430911916248,0.5648211952675144,0.5662369012624309,0.6030944625154184,0.6413593556789139,0.6692212999866132,0.6722213711419851,0.599166730483335,0.5629873327233335,0.5006707704526736,0.3921196143824597,0.2923605952416737,0.1861749413137983,0.08512171589734807,0.0,0.019470646070754327,0.10204374149282947,0.18474043330890666,0.26943734062488733,0.3469254284364629,0.43481988910114655,0.5012098248016703,0.534635068162951,0.5431557178064095,0.5526047436925148,0.5742119872802491,0.5926505915098081,0.5898756384128299,0.5571919470893691,0.5217637922953595,0.5209007547082662,0.5257094577855987,0.5383692993107743,0.5190330959433522,0.5087596951152271,0.5234319735768977,0.5380824987208404,0.5501202217241632,0.5550799816933583,0.5730750545315639,0.5755932643848447,0.5646357532449309,0.572925831408881,0.5616572435525704,0.5380982298742589,0.5088966200867953,0.5165039199248711,0.5452242895922863,0.5931157457942402,0.6170985645853264,0.6005317846592901,0.6110219960619374,0.6853919560503305,0.6605267707784708,0.5594872209083732,0.45592313645279603,0.3563823978341567,0.24772062797068628,0.1620663863374605,0.16350479088201908,0.2344215383509738,0.3116322937555136,0.405090545436503,0.4953122378905097,0.5551402460082757,0.5810826350600111,0.6044723170418371,0.6178332916902289,0.6256936884402102,0.6485488996033162,0.6484706231193189,0.5850577092813536,0.5390797909324383,0.4923368278969602,0.47720999318292856,0.4841111839849206,0.47655472662458553,0.47280262549420504,0.4603396204323329,0.45551714933937326,0.4533509597891463,0.47789342886241704,0.4806642092730158,0.4851087916290293,0.4909691044249773,0.4743935621489963,0.486147594979105,0.4928521676424489,0.486734237992001,0.47150832691422284,0.4273735598607393,0.43094864868389227,0.45348763696809335,0.4815491010155082,0.5082527629297351,0.523473778260493,0.5477096714876657,0.6254966365131374,0.647687216371033,0.5584115279285298,0.4572622592324853,0.3509880330477988,0.23944326096519486,0.14049953744473465,0.05873018605171776,0.08916321499094737,0.16385512035688388,0.24609044051216022,0.3345845745911644,0.4224726552321165,0.49439109278213733,0.529588969365923,0.534540559437338,0.5569754492314867,0.5545174640544626,0.5608327671623181,0.5702533622252646,0.5657032317358683,0.5396955887437458,0.5142045798211288,0.5222410850540116,No
0.20884478818620433,0.20487126461563765,0.20529997819817325,0.22670383020045382,0.22087246422146745,0.2005764140649795,0.1981671093966959,0.18245528003268507,0.19663656929451978,0.17686430108284767,0.1709823530408272,0.17084581308047486,0.15815870041538993,0.12476586355992225,0.11634414175690821,0.15512096571783918,0.22845408370452613,0.2562494293438542,0.24971019300137431,0.22930735641646383,0.2336958558357951,0.25520667186391144,0.25691836428182846,0.2693089769033774,0.3149316190801219,0.33649822646133476,0.35877354101531367,0.4719050359010879,0.5929432154128964,0.7148862457363645,0.8019737255178221,0.911544490816083,1.0,0.99956585707623,0.8844753455693048,0.7451632813202966,0.6243923565734208,0.4877231691084303,0.37388751696539746,0.27134995546519214,0.2303901490073219,0.24860362770432332,0.2628431944135423,0.30352998272845877,0.2900791079555134,0.25227245823140354,0.24973358109264954,0.25704989455366256,0.271825967395646,0.285301548855978,0.2902290031099781,0.30464905178681967,0.3135368128763165,0.3109849623379075,0.2981718333248997,0.3104837903628024,0.29999266072836406,0.27124736072860944,0.24007363508686552,0.2282384060573177,0.21685317767083312,0.19691819018498968,0.1743264841898382,0.17591048740817072,0.19719819311043274,0.18775875743217885,0.19460837937760722,0.17398983302261684,0.15306677101094657,0.11449869126699497,0.09645192819970383,0.1439591918314136,0.19910827102662498,0.24052315728226592,0.24993069369040022,0.21312743171400061,0.2017950442584251,0.2171642211109237,0.20093747947535867,0.18939677130567212,0.19998552380468215,0.2296464192133829,0.2719135723037578,0.3619740727977323,0.49039632956867685,0.6056218605429606,0.7191198243506438,0.7918363421672376,0.7527201803732391,0.6389463027736664,0.5175284565646319,0.38675650637802317,0.27183362500288055,0.16971930521908885,0.16610616751555352,0.17164936100119643,0.19021398802741984,0.19637668746562653,0.15873219008649553,0.1398929182567672,0.1332899578138136,0.16556724319041827,0.1760889153621923,0.21826924688822302,0.25227465565749796,0.2803276887842543,0.30893886377284474,0.28938870380160875,0.28615053614980823,0.30177102067964157,0.29338881972915587,0.2960050312064162,0.292957405827436,0.2884865846710376,0.2761368312506045,0.2585280430651,0.2565399959943715,0.24307319972011232,0.25162255269400013,0.2568403937724746,0.25424072625931515,0.22969760191469835,0.20435579345770982,0.22843072243331264,0.296625939241701,0.3531749273794764,0.3700778357628778,0.34423652204492594,0.280950053724764,0.2300146999108934,0.2664919746020793,0.2833661390033235,0.23389482924064264,0.16999399051639852,0.12814328999565205,0.10744071622880291,0.13647165700433916,0.1642568659626944,0.18573328563153169,0.16977019967100926,0.15959857571509062,0.1595186391115595,0.16194365187030524,0.18471203862327013,0.20780378889792672,0.19848090260375972,0.189097312509511,0.20062168888422516,0.1942267223923908,0.20218448812951806,0.19640585733293747,0.18950655686337647,0.16066858951195062,0.12905557029531778,0.09070588168900429,0.07343330155420524,0.05506467665470982,0.029343637284791946,0.03396670124856804,0.04931238635960877,0.10955491316370125,0.09015719051715099,0.07373598821946814,0.07209873864374572,0.053644648532907624,0.09888802929441898,0.1990169261595378,0.30442118563292464,0.4301331592934581,0.4980410081116755,0.4108354772657501,0.2897517018672344,0.19995216750457967,0.16204345323339542,0.13415517186455084,0.08665727212287244,0.0928900922277256,0.08945281580649311,0.10924096708276654,0.13014119343975583,0.13298925537911366,0.15328649698376484,0.1353234986815428,0.08364799118020816,0.028389797982968368,0.0,0.02213519838409006,0.06416074507544778,0.07561108201618705,0.0973435309484767,0.10224773192176251,0.10225690834049228,0.10225690834049228,0.10246935821514924,0.11618127761088548,0.13137063565039764,0.15086176952596286,0.1806697561352184,0.21169892420981018,0.21677578217531845,0.2212258964960485,0.2427306570849641,0.22229920619507304,0.20824680987250943,0.1996666058608989,0.18699312842285742,0.1661975458360585,0.15313122935203438,0.14569014699584493,0.14974270482450436,0.16697643712601806,0.19019660822197615,0.16092869666149756,0.1583502239926693,0.14474933275346302,0.13773087243918258,0.17011837963670295,0.28420266555209217,0.4081424073903186,0.5373044919320815,0.6578408150946062,0.7489139961839699,0.6647804917304985,0.5367452986628978,0.41646379769346265,0.29724136785705824,0.22454272128771713,0.2024748169228614,0.1970549726000712,0.16706105813117844,0.17959034003477825,0.16768026607041087,0.1595831534329406,0.13245317001084267,0.14409116754528029,0.17121412569880246,0.16524498047070413,0.12086061022912098,0.05315669228344344,0.025315866864837666,0.02831066487640843,0.038769142519994304,0.07458414892788312,0.08401046105289645,0.0895586609276835,0.08993336869723034,0.10199131784804027,0.10218607551911596,0.09220218855869611,0.0999177291993183,0.12989148089686609,0.13060065893270512,0.11480608135970449,0.10238343363567903,0.10225690834049228,No
0.8907300100175872,0.8742901623599115,0.8745036477729533,0.89334296529809,0.9072509531887345,0.9247233392241858,0.9220770627359061,0.9183308817088811,0.8975142226155901,0.9048555186304963,0.9065809760813819,0.924508148259136,0.9116574414030678,0.9330984418172639,0.9212365865497611,0.9057354732265912,0.9054894164769838,0.9053776970233258,0.892064408753023,0.8455292096893068,0.7871597768580907,0.8542746932937035,0.924644601890134,0.8514561329911139,0.7051374476934233,0.6326943098289721,0.7343967759373662,0.8627664360942662,0.928607419694158,0.9188452062160408,0.9220322626380657,0.8886210421032992,0.8264347142788582,0.7973770776093154,0.8064818068808082,0.8776489594069803,0.9051555354797935,0.9183467905134384,0.9142675316711726,0.9055370008840615,0.905748945857777,0.9214150481430678,0.9237858772443497,0.9042482629631978,0.8804838231347496,0.8862313119399463,0.9124397137990758,0.9371845017701288,0.9530856372230101,0.9519515697746206,0.934483646371854,0.8964567506682801,0.8508491350047152,0.8434910128554449,0.8651491406614795,0.8667358306462729,0.867116755741641,0.8739432719405054,0.8739746697418855,0.8739746697418855,0.8739711442628639,0.8696515714185784,0.8137447149998964,0.7879977265949236,0.8806082571898397,0.8535785189200809,0.7302935422034222,0.6327909423797662,0.7160896188917745,0.8385048800379122,0.9285071812111605,0.9448624659922764,0.9256942698339872,0.8980314458715437,0.8506718838117253,0.8275263003999651,0.8245141046204143,0.8818305658028871,0.938028525455052,0.9598981038903363,0.9464282985046477,0.9496759676940902,0.96547129688991,0.9684928460851845,0.9626031268870623,0.956785961269853,0.9409258655629174,0.9539617419674258,0.96947136200943,0.9920146171741573,1.0,0.9976622013733598,0.9678626199497797,0.9139206787434544,0.8514616145341254,0.866918467283436,0.8558676599484727,0.8720604248271346,0.8908799377248222,0.9053129656919721,0.905443996617894,0.8963313873857119,0.8826415055726988,0.9015725506524932,0.8758188160126412,0.8222222464515285,0.7296209940919924,0.6290097553178615,0.6071491912120281,0.5402055994020598,0.6232719173488332,0.7626213469772418,0.8803823470329419,0.935008004664903,0.9386724693247306,0.9501060492036029,0.9006735476184096,0.8303030579749668,0.8255333125163578,0.8316220895741617,0.8853445040616865,0.9051315293506104,0.8846641053874071,0.8131802674775628,0.8224999854797765,0.7869292796442595,0.7061295513556214,0.70201490824841,0.7224582464835807,0.7143471039478202,0.7461607176497793,0.837210073788901,0.8436500839992638,0.8185735859100225,0.7176396399575893,0.5841911546941043,0.45484294262521807,0.3223652619181241,0.18759070605277817,0.04848365809098265,0.0,0.10558308349465317,0.25636197112992676,0.3686485188958297,0.45473653436285044,0.5735742416067628,0.6899342598749678,0.7702461311892499,0.7956273136513516,0.773512306979117,0.7842094354507809,0.7981636930527056,0.7983392775776501,0.7980289667408478,0.7811263924451239,0.7669867678061362,0.766877758210466,0.7787936861182434,0.8416633521699772,0.8874965181287457,0.8926606221192586,0.87788581804414,0.861618605871298,0.8515591427072682,0.8495795114834612,0.8612632070973101,0.8631494942193516,0.8834193190672375,0.8650511439121598,0.8613735211284324,0.8611739082537957,0.8415665212715009,0.7714521373438128,0.7363957770345895,0.7388582477641075,0.7675197871419908,0.8145040792412681,0.8338934496850428,0.8411215677862502,0.7344179015334147,0.596069412943538,0.4793214532054355,0.35672631259348275,0.24332551103744393,0.24651236897984674,0.36297128004817303,0.5056981188493248,0.5168909717120878,0.5335256278504934,0.6362440728533167,0.7351776015177638,0.7909102925107829,0.7704389415704247,0.7834621336917236,0.795982644544595,0.7725219982161686,0.7668394484245571,0.7658319064047356,0.7438466137561308,0.7219528493169349,0.7373624128451679,0.7840716751518109,0.8352335717152313,0.8361189606003299,0.8380650751510199,0.8430363922368551,0.8271533145723025,0.7983104625655963,0.7755154055907516,0.7949962729161815,0.8024827744157284,0.8269946472412588,0.826277570773339,0.8042590688176237,0.8245546440753078,0.8211358010862071,0.799238908458789,0.7770458786912195,0.7110399599398596,0.6762265047735534,0.7090278901030898,0.7219630430542301,0.7783350916238385,0.8268225764881256,0.8252493116275934,0.7536085099316416,0.6108655723450758,0.4888044534468685,0.3750383598054414,0.28120134282565346,0.3123551437091754,0.4059193045594691,0.5306978436986292,0.5670304137473607,0.6488839850715014,0.7444617670196498,0.7928246551007865,0.8089974490084231,0.8247302203363898,0.8177554829462732,0.8096023082300388,0.8220439364237739,0.8145714564729225,0.8170414461946081,0.8000027040176727,0.7983397785904289,0.7986049390097172,0.8141964821162384,0.8296111453570303,0.8277682738859822,0.7991405834779348,0.7698101929987349,0.7853918954910757,0.7955008970771864,0.7764449304064023,No
0.7142693175145158,0.6388860110689518,0.6339568704675131,0.6539422589264756,0.693575114773822,0.7741207915953017,0.8344317830234962,0.8630260897087672,0.9018869076845437,0.9141424439575383,0.9099460060410518,0.8457589711933204,0.8398057482808632,0.7981407707748165,0.6714072444891754,0.5317484989503432,0.4107379498019186,0.4849912975920656,0.6239160700195199,0.7643576974463318,0.9010293226818478,0.9393294780086814,0.8869507981559765,0.8513309081467915,0.7867013421475608,0.7164974215364963,0.7621020273310846,0.8333785435127146,0.874505463949629,0.8832137885135003,0.8848203725330226,0.8993190518409548,0.8513176766751585,0.877310840254883,0.8646953373948216,0.8546939885498777,0.876126093309356,0.869263852777646,0.8820829604657705,0.8864421031190508,0.8796405350966507,0.9111251299517065,0.8892491343478621,0.8187014543168427,0.7576590484568051,0.7679261080199566,0.8479057113212329,0.9089641480730846,0.9843935646704347,0.9814544632943143,0.9914438285229581,0.9831342267778176,0.974520985123891,0.9494840291810185,0.8918247518463582,0.8752168675643732,0.7803981657835575,0.659823109576728,0.535084763652121,0.3916529648681477,0.41517414462138547,0.55043384029051,0.6896144006482432,0.8417753624708944,0.978445044886664,1.0,0.9553800416609821,0.9245201760276736,0.8576706110126109,0.7659916393275492,0.7766742418060932,0.8500967398802262,0.9012396698042924,0.883684655732516,0.8853080925437844,0.9021924945108086,0.8808283612552161,0.877746753793474,0.8511472639323916,0.8725627991904101,0.8648658310297241,0.8311892008123136,0.8270570623498861,0.8161264729633864,0.8411085378381484,0.8611998571081028,0.8306889739366188,0.7981920116894665,0.7571535053413498,0.7304318021546798,0.7384760172609557,0.798233493746829,0.8401288101659707,0.8391589320537802,0.8274256939545923,0.8167514341468012,0.8079946296678484,0.7478293852683842,0.706762206801828,0.60358638638276,0.47895405269859426,0.5140846672061672,0.6341972715842537,0.76101281681682,0.8626802886385994,0.8527983845032638,0.8172906001492599,0.7550872868575014,0.6823806314783232,0.7029439341489852,0.7740093902067025,0.8276291403562617,0.8175404515761606,0.8308605737829309,0.8023621851315736,0.8136999163428453,0.8505689861093728,0.8124976194260909,0.8337674776975526,0.8235557531190736,0.8181339166317478,0.8495606555450292,0.8001680778553406,0.7976578863087731,0.797587417966366,0.7134570130222055,0.6564112448360504,0.6662305904248651,0.7059251077314674,0.7029492851202632,0.6937315620015871,0.7300116938343639,0.708564967872972,0.7015866294161412,0.6778595603356341,0.6983826747030144,0.6952933360218303,0.6797927559695958,0.6495780130579285,0.5808374077811136,0.5217159246114846,0.5759850745785418,0.6611821434186638,0.7097978361421351,0.7387568618620466,0.656271885215661,0.5181784906367586,0.38150740874340183,0.24240180772159237,0.11606298893307487,0.11237235239174748,0.2358180454687715,0.3818511425274185,0.5264402220257232,0.6227026760840304,0.6994025040587522,0.720847246665651,0.7029136708614132,0.683176648857331,0.7298027523044253,0.7138559813308745,0.6591681598752976,0.6098719345224,0.5941194294444543,0.6272714293481929,0.6772044552109384,0.7251528507038989,0.7360063057664905,0.7193149433613604,0.7023426011278349,0.7022007332338367,0.6518220393917158,0.6950499181835856,0.7330194770994751,0.7116290107793835,0.7292940219136961,0.7435177405218609,0.75566268340912,0.7592489277773202,0.7514965661811823,0.7746445490037868,0.7323327685972258,0.6606271768417527,0.6107709165092854,0.6575291003490302,0.7444055550356015,0.8102354722704015,0.8335502370797192,0.8267840996153257,0.7041140471865743,0.5651306711006074,0.4225138429921871,0.27783461938245546,0.1306104500121803,0.019330506198196318,0.03553380805443407,0.1678272454213121,0.31483141702757456,0.47219953523325753,0.6136587657215347,0.7322752293590824,0.7920843608127024,0.84174680404369,0.8534129069316592,0.8413231867680224,0.8304245263850989,0.7726298690545899,0.7136148683489894,0.6393768602203056,0.6339863718707117,0.6619681693986008,0.7251181995860785,0.7197671825926655,0.7342693823390221,0.7506121254921165,0.7310200266099898,0.7134644075473537,0.7248387397300253,0.7313190999702006,0.7532050009756999,0.751040788353921,0.7246419873362306,0.759914045162073,0.7837391207645865,0.7741162142010838,0.738400027370318,0.6650495415695854,0.6101955991008379,0.6250311296102007,0.7071998603156264,0.7511635133926777,0.7695653719847706,0.7680111286752456,0.6236861147316501,0.47379861958245595,0.34020543458431707,0.20123236507281694,0.0642563252215913,0.0,0.08805123425509453,0.23216187233552477,0.37515126119625775,0.5298377002916475,0.6487610173905485,0.6998736833926325,0.7577095666320228,0.7694154079726485,0.7733031816461016,0.7330787190692822,0.6758885889999835,0.6219136633792499,0.5545332118956159,0.5100097153003098,0.5119463620476545,0.5948806236611319,No
0.4708287390293644,0.4423659581477426,0.4433529891950454,0.4667708819177001,0.4786912337093714,0.4756201367774624,0.48574928315999655,0.48029712509657907,0.4594404564484269,0.43454998633193886,0.4268455266792608,0.4448538570637042,0.46330024556137017,0.4632480800611347,0.4475221498841164,0.45024276237766303,0.4707668839750534,0.49969886612348313,0.5368318253863436,0.5550423748399189,0.5518447791010894,0.5291974803600721,0.5084468963016486,0.5064074966495276,0.5070598529119641,0.520762363024811,0.5170878684707301,0.5103256221294585,0.5465680819368957,0.6028187934337823,0.6506985389937716,0.7183038959760135,0.8215759521844421,0.8621768022536109,0.7975981893030926,0.6944286814794158,0.6078448904039004,0.5335383671465839,0.47723382700821393,0.4849150826665274,0.4727305468563969,0.4351359458152535,0.38349450391687245,0.36662578350833464,0.3993303546663416,0.446798978788602,0.4669014001101299,0.4826675482929006,0.4800009722110854,0.46640033639373035,0.4729655845050216,0.45722221968438337,0.46422790575235373,0.48547528263283457,0.5203492824797449,0.5351854441103074,0.5322830453254364,0.5390628453012036,0.5381779275954139,0.5645793034123061,0.6117882342269154,0.6352129243817499,0.6587574880828742,0.6644379134519789,0.6532717735735463,0.6316315973462197,0.6332013589872791,0.649360630485901,0.6654954056252174,0.6734461422799565,0.682134725306204,0.7078075035340077,0.7671931404126209,0.8179670752441419,0.8769369830376803,0.9671872644040014,1.0,0.935847066868682,0.8435252871939949,0.7377029266050656,0.6559114201265746,0.6135967273066965,0.6025979464501372,0.5575596686482407,0.5097878244685661,0.4604109846476607,0.41946429632085724,0.43205954288955617,0.4674804412437368,0.5072774767923605,0.5484111336654975,0.5587815222555728,0.5553039461248384,0.5746637555092016,0.5837715420974865,0.5879691729534935,0.5883733040360442,0.6006985602832224,0.6082393845271015,0.5999054522273224,0.6015577810498951,0.6396880642422764,0.6794815297747707,0.7200498318896171,0.730022368683445,0.7141027050307778,0.688856544212757,0.6552699236737949,0.6388841584677154,0.635048073172328,0.6362546352820004,0.6290093013521596,0.6382656608135671,0.6633026809698652,0.7128976801809239,0.7779654546784109,0.8145580312684322,0.8149734306597187,0.7289930625049967,0.6572923074948016,0.5859591562266906,0.5541088737286151,0.5610500187961152,0.5295393654568463,0.47313512386690393,0.40468789703689767,0.3314535039998363,0.22687974330578653,0.1194852335755594,0.02824499162486438,0.0,0.018936205725196942,0.09208263130840466,0.19879987584776337,0.3053260004874345,0.3769618504774326,0.41990851555587216,0.45700142652510634,0.4717908368603405,0.4863974902132493,0.5421674306935875,0.5785328248418513,0.6159870920049824,0.5950482886077291,0.5488519969251402,0.5439098149205082,0.5297316549475783,0.5273952463379064,0.5480066302096129,0.541195547157836,0.5462822544985397,0.5693875760085416,0.573563924864072,0.6082349756808352,0.6430661813740866,0.6522866624729313,0.6131334595926199,0.5609258183301891,0.5332753857706769,0.5190677086760727,0.5173148696671399,0.5082021774475103,0.4988418495040552,0.48388567642476144,0.49081402810506614,0.4865407342060477,0.48611250086006397,0.46724789018181134,0.46930399482626894,0.458391634156305,0.42157220766351333,0.3875870615099686,0.3540773594287083,0.32119308126660284,0.34326816920993997,0.37336137163119076,0.43901348329853596,0.4901485621571764,0.5272358126443599,0.5139595239819492,0.5291838721840145,0.5926385725349306,0.6466659865063966,0.6828481950098189,0.6757938363208695,0.622251163106248,0.5992373484393863,0.5815102810538502,0.5719288788762316,0.5492581231438658,0.5563703635503918,0.5555942131962421,0.5498233398554322,0.5694785948955268,0.5690783664111709,0.5428581347605634,0.5078969725788278,0.469447140419756,0.4557498686591508,0.43999446660988495,0.4365961679580215,0.4204946083507841,0.39182790907400555,0.38086826968075504,0.37592104497795464,0.3758259675517568,0.3759569601808179,0.385432810852155,0.39597967603096196,0.3878167867566522,0.34853901184181435,0.2994609022517669,0.2778528404825633,0.28401740810531395,0.3088841544374761,0.36097166662573876,0.3944127148660388,0.3854707082703013,0.38595768132553276,0.44269466899812127,0.503504719985763,0.5284763120344391,0.47426235057386235,0.49541490193145377,0.4790168224849536,0.4256761643567133,0.4204501195578496,0.4180885903346083,0.41663415581779484,0.41667908184226166,0.4233316450195179,0.427524606788523,0.43347674953738435,0.4430441595298422,0.45409566043669347,0.4451577069143111,0.4000639067373055,0.38055763116458685,0.3665565875630543,0.3676971657642327,0.37572741123306796,0.3702793824018418,0.3501739635622876,0.3479572482936528,0.3555512168863073,0.3680658303023021,0.39162843618192733,0.38789158703490445,0.4007867977793622,0.39690335321562564,0.39158812874256643,0.3611604359321592,0.34411313240389463,0.361549154368209,0.3887912538240186,No
0.9026394374024971,0.906668228569866,0.9337710326100934,0.9266983160750506,0.9371140850838966,0.9073822209180324,0.9108997987966951,0.9091726341729638,0.9083050664161743,0.8619058765110736,0.7947800468310469,0.7242839821400882,0.6484257828859628,0.5938599930334476,0.6438983511555261,0.7342411421461632,0.8045281253067946,0.8523615537172509,0.8811523279123001,0.906066033140946,0.9049893975543073,0.9090762686721892,0.9086119069620526,0.9030354596128003,0.9280159721512167,0.908980551071604,0.7879760014005823,0.6655665074094657,0.6821753084675928,0.8039489146765026,0.9362896200998616,0.9995720512870498,1.0,0.9831312747488568,0.9816559551112869,0.9677344340900005,0.9325837998108018,0.9104879662393097,0.9205808157941942,0.9309677713537496,0.9523070328438381,0.9714121816693222,0.9356802893591167,0.9255378780609869,0.9344610539038101,0.9147854104461208,0.918984542412046,0.9087295995863123,0.9201954785841702,0.9166948664313965,0.9116995030890811,0.915870856138552,0.9179228053107025,0.9173341152486953,0.9086373858213479,0.9078674582192283,0.8967301386665865,0.8701911765624635,0.7961211258523004,0.7168856653343108,0.6312181267883705,0.582881786472738,0.6446169962465351,0.7221428024053687,0.7796639811316544,0.858796780236367,0.8986974142527187,0.8744060592033112,0.9009051032643791,0.9138181260159195,0.8981747262420487,0.9133276719402641,0.9066547731453145,0.8316838278521468,0.7287750862709732,0.5991680182684771,0.5330556217340012,0.6509974798930562,0.7695774771755373,0.8881002279740153,0.9479311464942084,0.9720107795757498,0.965900303205947,0.9667928961996406,0.9874831042456851,0.9794260624770912,0.9093898036137364,0.9023280216219183,0.9328264328143314,0.9232646263551567,0.8950817944217988,0.9115446036907482,0.9057229896337153,0.8850877318547745,0.8478158736199566,0.8480554352129417,0.8391744156410805,0.8042480837497941,0.7856127279872718,0.7561173268498536,0.7665585766021623,0.7671961455791827,0.7606331006433722,0.7638164591585044,0.7584520758208226,0.7602081012273612,0.7169369565483583,0.6369614027139789,0.5472161509762552,0.5015459940610709,0.5557900189020577,0.6334544524200414,0.7139981586990851,0.7774103112434965,0.7988723801888495,0.8199683455908664,0.8187462951270454,0.8096112902745087,0.8323305394216058,0.8471664896819746,0.7760283711268245,0.6748373272382819,0.5392016797426837,0.39691862652292365,0.29065241520182283,0.20303213389814534,0.09952941982093666,0.0011051377004189789,0.0,0.08836216488493154,0.25033812279647094,0.4152274462474326,0.5368292412060942,0.6216516424005638,0.703077146154591,0.7014946315019142,0.6846529207432406,0.694123263879777,0.6800383625526649,0.6817804716402378,0.6522962389768603,0.5682271415068003,0.5001197787852867,0.42999156215729517,0.36847887436717386,0.37977839917867584,0.45500107146407487,0.5495308326931818,0.6302900723383988,0.6633131447539711,0.6536137150594481,0.6341989605871481,0.6447838702606186,0.651809194570399,0.6373094082903288,0.6692753121297477,0.6534914714321882,0.6994391912034175,0.7231764153093216,0.7077075241402602,0.7328302831140459,0.7733610262918971,0.7771991604870951,0.7824482807385786,0.7655898579692026,0.7736650721618021,0.7858775435749097,0.786275058526706,0.7980487318762979,0.8483870153169226,0.8598468214906374,0.8568786277648197,0.8466400862347356,0.804970681028319,0.686323686569672,0.5722651910840497,0.4423808660714652,0.31690407446674396,0.3009747805759595,0.3951843200032821,0.5255158209281428,0.6574506407680722,0.7342772716970352,0.7437085440975109,0.7606547758947286,0.7785707302914195,0.7648437168697058,0.7672973544978356,0.7500485129271821,0.6738232152152666,0.6346776375874894,0.5421010639579897,0.43771487524095143,0.41185104970835784,0.4693811993073167,0.564033661372858,0.650006227535787,0.7280806735057981,0.7878839373550148,0.7968550597476574,0.7797707242705805,0.7632773536623372,0.7849640049220321,0.8042844089827952,0.793885664347938,0.810090831350637,0.8144136537803579,0.7988862598563857,0.7999972789385303,0.8124170566306042,0.8047642346650736,0.8030895793048272,0.8016477824534576,0.799285694952939,0.8211062875580044,0.8263423830387131,0.8275851199331017,0.8080348599075498,0.7748348385149333,0.7985992627951797,0.8440442901517091,0.8653276608600251,0.8697902359966623,0.8373896248126336,0.7704298274588925,0.651055708188724,0.5540274384311541,0.44751122665310117,0.4704020038530947,0.5711147966203134,0.6970136754911431,0.7757019249963069,0.7870007544433255,0.7505464432631213,0.7482272054366828,0.7788610378580838,0.7971990523707619,0.7697321594732198,0.7595393299708366,0.6953680951318528,0.6099285721839189,0.5223742681382291,0.4835160972510062,0.4669992275521073,0.5399628505562655,0.6180538557462336,0.6913792402727834,0.7641874036751366,0.7852888012048815,0.7696529827597844,0.7833355734271974,0.8026287165682042,0.8151768060489983,0.7933173002411822,0.786232995352437,No
0.7884425890185547,0.8175225200262064,0.8473141195243521,0.8519875146671039,0.8540771382553545,0.9047032106315331,0.8748890973334906,0.7898655087842248,0.7030083961669527,0.5821195961740959,0.5335667879320289,0.6399100064509846,0.7598449237003662,0.8818124192792847,0.9674727228123876,0.9908078578116619,0.9163256085196569,0.8540114430780243,0.8082006451450074,0.7602389334361987,0.7545390243604073,0.7894775988730598,0.7942975838964981,0.7623833996798579,0.722873150993208,0.7179573405943738,0.7263382821717599,0.751387407982655,0.7324423631270678,0.6889473624676281,0.7341552484077218,0.7721282275410979,0.790942468906283,0.8491741861907212,0.8906060733979762,0.9286313067062033,0.9485749559700376,0.9450623018663302,0.8959289621660398,0.8298456227563173,0.7533324259712195,0.6819728891002801,0.6181963383201703,0.615876336181818,0.6396285603735388,0.6660143733426862,0.674061958883315,0.681632608941463,0.6804481131505029,0.6734114505528392,0.6461426428460748,0.5680064761658907,0.47835439293596016,0.3620148802056251,0.2792466930533912,0.34801491362803727,0.4678291898676403,0.5894668466335542,0.7124147791478475,0.8195211229863002,0.8352255496719203,0.7841887221136865,0.7269714314179194,0.668243865324472,0.6893990576745184,0.7540854881385117,0.8070872930616391,0.8181318777943827,0.8461616348592722,0.8838350677626825,0.9337889578421312,0.9603509007291633,0.9742916582256593,0.9470159011971817,0.9187166732127334,0.8905981600798532,0.8578784452382182,0.85288961255845,0.8519324214202912,0.8769054427937739,0.9009722560290356,0.9191206618973182,0.8773608388071694,0.8146154562119574,0.7538704559785137,0.6837150987611285,0.6748077132031045,0.7085789381319438,0.7531857451757471,0.7629553899878192,0.7686066576637498,0.7614785447638033,0.7322813191202671,0.6884261318591842,0.6115173061216055,0.498380969646266,0.38482249793398227,0.3997621515616019,0.5201845012359754,0.6400357304337501,0.7632424700281923,0.8802241238963702,0.9659009818171755,0.9410695807157659,0.8992592470366723,0.8693078193854773,0.8742175052839158,0.9429172571420561,1.0,0.9987895748343467,0.9654540424528659,0.9089693563218733,0.8478923461959562,0.7871106006222175,0.7351641743102348,0.6643117575522957,0.5902180133258179,0.5535550865359933,0.5463511372379366,0.48224542114073543,0.38479557503749584,0.2580989735880608,0.19567149420548313,0.22736864737501072,0.34486951001393296,0.44823815093800023,0.4705808615110403,0.36025669044881736,0.2368375586575464,0.18540994140314382,0.19241556727365428,0.27827852067701464,0.4104684772567251,0.524047118537645,0.5933204170138642,0.6683005503781625,0.7076853502077709,0.7692444728807231,0.836565087459181,0.89224928181671,0.9174660766630485,0.880118534907449,0.8160040179779164,0.7805478928673781,0.8046920127871897,0.8159657194240757,0.7783779013950607,0.680634754870006,0.5871627802511208,0.4979900196806688,0.38048999149722285,0.26421899509968805,0.1687590825883536,0.08416753522816922,0.09486973167597856,0.2040046108263045,0.3333323688779113,0.4611750857182524,0.5633384933041321,0.6263952926358662,0.65725831550728,0.6649380330194417,0.6818974016990005,0.6800468537989488,0.636128710620973,0.5922733125786919,0.586489911654644,0.6304197981376523,0.6891927740718771,0.7653956771392054,0.8131578156755417,0.8183282079252221,0.784973061212531,0.7818821772256226,0.7724019708680414,0.7661177018841316,0.8055090696364586,0.8384881366866237,0.8755292945326056,0.8792604547546179,0.8565995192046487,0.8285068890427483,0.7829657824725911,0.7510510113152966,0.7240790836284061,0.7008493611036304,0.6355421033448603,0.581638439891988,0.5865627516245788,0.652051287581215,0.70765837037374,0.69605326551868,0.5813304749590475,0.4573017012116929,0.33490186411351175,0.2151119929031351,0.0925530397955252,0.0,0.02705782803144796,0.13482221960405605,0.25271984608975107,0.37291282237595036,0.48336396016141414,0.5703693851295668,0.6019394628541428,0.6003399027836291,0.5923892347731505,0.5929461492627475,0.5784062251409634,0.5639446426789485,0.5198387028038396,0.5386693824675932,0.6040855952181716,0.6768786649076861,0.7521098680952782,0.8231880893480827,0.8682329802456303,0.8694282105954825,0.8446565631505907,0.8019078826396502,0.7341196580162896,0.7053411391856539,0.662852157319826,0.601973746061792,0.6148845172108026,0.6598564764392836,0.645080823157028,0.6453921563669711,0.641911142703322,0.6538517707650473,0.6929918006583358,0.7079370726112817,0.6958958661762829,0.6621997094638745,0.6809994232880059,0.7494444099937176,0.7994156541279596,0.8261273423435456,0.7325761268421349,0.6118261264497149,0.49149147223450473,0.37591955415559797,0.26376180278660355,0.21997200600016065,0.3091345305937754,0.4259486934225305,0.5454076788938877,0.6631210090289734,0.7533119634251562,0.8108675129950922,0.7891193854641645,0.7800936974627262,0.7654791916306061,0.7325397651003058,0.6948535634795547,No
0.2543172914326908,0.27529253385909946,0.25771370312233977,0.2745370858495333,0.23467676088341438,0.20955406045810232,0.20802978408689832,0.21794112296766244,0.24230025588848036,0.24914585232072728,0.2099678899275501,0.20774447670878704,0.17180632081541614,0.15627527250102702,0.1799958396717205,0.1980933604076638,0.22203411384749394,0.250249741776833,0.26980762551597426,0.28217336742928456,0.255526213478662,0.2629935034827895,0.3112366881935573,0.42349545477538,0.5453929834608795,0.6545015027789969,0.7678173451322756,0.75751595372083,0.6104001462196029,0.46074751697659266,0.33955269966885915,0.34065368053487166,0.3089067356724762,0.31766911092461037,0.33803997847651157,0.27699875882434455,0.2824489648730424,0.22932972014573139,0.20415432690946655,0.2534678560224677,0.2825650689613326,0.26117041401766894,0.253071533904774,0.24494804054748265,0.2512400585867045,0.24770267806716095,0.2412814620255439,0.23688373465277301,0.2528675904770754,0.24965269927839184,0.23258110063822368,0.24461757360227132,0.2027193262182747,0.14720176380839511,0.11589446530160075,0.13788434814232708,0.1758706208698264,0.24806407968819055,0.25513332077349027,0.2789336049702982,0.2579765754630534,0.2327639914247852,0.25006288816280087,0.28875831343459435,0.39842220798666617,0.5023637941915089,0.5868838606441464,0.6964375686923772,0.6744128222577297,0.5379183279345829,0.4250704964090062,0.3341584505039119,0.30372014107090184,0.32349475498858116,0.31300371908129065,0.3160503739496079,0.2575192352383757,0.1891156010068027,0.22395465487179234,0.2483595977035149,0.23574228163750988,0.2812440555072202,0.26144634997941196,0.23488851739041827,0.24357263550271657,0.22157786598068174,0.2170110193574084,0.2165994476653328,0.20252661433603247,0.21043780200723283,0.16322930929583457,0.1240744450717628,0.14415062854950023,0.16852195722130947,0.21319342087722504,0.24248391848507644,0.2734822819012299,0.3075183351602018,0.2541195376329517,0.2196766877441414,0.21700606241742548,0.21754616753899025,0.248357355574373,0.3291209661241359,0.4542206217944216,0.6040783672074834,0.7567019990057187,0.9255958012648984,1.0,0.8972931982584553,0.7462098659040297,0.5896579472257679,0.4519339312705073,0.29568037175168804,0.20307756440592062,0.2640550085922788,0.2601066595500461,0.24411680773046207,0.252623230457111,0.2283539752337873,0.17782792051231233,0.1646662583078955,0.19907867532989254,0.2374648051150512,0.22178933008098234,0.2169916399810221,0.20874216083249575,0.16721072009465932,0.17964870695589497,0.1785103013166136,0.17170403304906046,0.12641658484980578,0.061999572033641925,0.05788703659015315,0.05795292410583475,0.06905715685393155,0.09309336719541683,0.09491362328949293,0.11653045124187233,0.08809173729742703,0.05040565129923813,0.025735867549851577,0.06954638323264817,0.11132519099952276,0.12372876676194178,0.12902058642685077,0.10000758037298141,0.03596451919701593,0.009950106125400815,0.1263562795993458,0.277077068745994,0.4033790261536998,0.34277334853576935,0.24907146702166205,0.16671181873077234,0.1250845878520117,0.09669918221848661,0.10093799722553065,0.1042393717084229,0.11485026355271799,0.1437492841077086,0.10881437187974541,0.07714428841139576,0.05803963518035449,0.04054211618063874,0.0,0.014300087530494388,0.06223746152334275,0.067403187054496,0.08826984177366626,0.09400325906952833,0.08518757083685013,0.06990381470982321,0.07720251097128727,0.10828461532954492,0.11375859726553639,0.11323395329635044,0.10472636006692593,0.1213523597839048,0.0921821469067492,0.05097488205324563,0.07870589450758114,0.15759799190900114,0.16813182199682064,0.194962134533192,0.19429585154995,0.11639258448682899,0.07548134208573298,0.20174710432503673,0.29297268725968095,0.2970477734887078,0.28678534158360947,0.19147625469614304,0.15983300947639112,0.10975836362321001,0.12446521893110685,0.16156223948669268,0.16613978234467908,0.14677736474636838,0.07944127027311687,0.039549112763237027,0.02457855190155378,0.005786901854906823,0.011412374525896496,0.06816013300113788,0.11832420383515974,0.1311168080871683,0.14609722184778562,0.14089950860839817,0.12252109351005558,0.10535335952002267,0.12918238838834473,0.12208842692136823,0.10594079631120312,0.1293433503366046,0.14671190573711268,0.1646810770418936,0.12480532973923086,0.07239104130057417,0.09540173291964482,0.14234722667765531,0.17028751906283013,0.1921498733466569,0.164493326728544,0.09105700312045428,0.031100559274873874,0.11726683626319279,0.2579369195435328,0.3751591910462615,0.3736886456292057,0.25840234505121185,0.17568138255050325,0.15593722766525264,0.1513922747369687,0.16596095045433668,0.14940107005338543,0.12535451637861872,0.09708634244058878,0.08071740618945533,0.0840227997194285,0.05177601304414736,0.024208089655475717,0.05835645204516293,0.09406533785411231,0.11955970336954813,0.13799056411896693,0.10356403000862979,0.11621091594216981,0.08333188995867236,0.08785257185671291,0.11070434318968392,0.11625084978469857,0.11578021941102357,0.14945926882337002,0.13079355300565876,No
0.11460725425190077,0.12857436524649302,0.1690620639452689,0.23030470174338014,0.36446368696788856,0.533640028333144,0.7058900206807026,0.8660638686471049,0.9716850751673629,0.9169348885383561,0.7723446522148771,0.6120187576036775,0.4627228995870274,0.3164428605333294,0.21489862137643012,0.1863483878024974,0.20869352013096787,0.16330689100377072,0.09427106964227239,0.105779299078689,0.1445995022616735,0.14684795428064223,0.12334758239951071,0.10663398559626014,0.08265893046585227,0.10000548006498544,0.1375064569337736,0.17841782500913883,0.21431242572210252,0.30786209882879056,0.36913611842063077,0.3482788710388913,0.3158153570175557,0.2654533864927968,0.24928496390928245,0.24922215476106135,0.2577510321778025,0.2784982672163032,0.25375146393301495,0.23113086735266108,0.2351220372821352,0.22212601553252398,0.23899082094716473,0.2482348626173616,0.31572195675364423,0.45780274735811766,0.6191900955531322,0.7672929348210742,0.8746146601478513,0.8105845765436666,0.6485082319736843,0.4810322932445361,0.3532229130168476,0.29440070449417544,0.26107172705346393,0.2743316408358396,0.2320041997746891,0.20499850777806294,0.2174921005384478,0.24538384177835226,0.22203862928907814,0.2155681550142976,0.2244002763169597,0.2478851979518799,0.2546352088915329,0.28605863748637006,0.3101180861887407,0.286155944287362,0.2673976131187734,0.23352221082491642,0.21604599373775013,0.2397627834427345,0.2812147374081624,0.28286269148753185,0.28286293396806794,0.28226423603631545,0.2649545373416542,0.2918525136607144,0.3097750001532198,0.3119711583997953,0.33257845105257555,0.44321942821237137,0.6029756686696093,0.7638446419342246,0.9110232551643511,1.0,0.9074935154828863,0.7608915634905857,0.6260316074664916,0.5122373515617884,0.39830971543639926,0.33968903389129945,0.3474184745144546,0.3618826268669997,0.2929114919243201,0.24231773515370758,0.2426107708407228,0.30064426372552067,0.29733743234784704,0.26366405382254055,0.24942298646690375,0.2612850890186058,0.28570514152359827,0.31302308885132923,0.3370745856906803,0.34891693424876014,0.3260642180389537,0.31512423056062566,0.29057706445528364,0.26886932426645505,0.2721302544888804,0.2539714149173653,0.27275252715844456,0.2802101413669513,0.28161756561801,0.2583953111465238,0.24919938590986224,0.2410496356193459,0.22400070145576567,0.2719305757404431,0.38538288995354364,0.5510831047031948,0.6975148675650651,0.8608777586189129,0.9692285586313503,0.9187250547968038,0.7776023000308019,0.6173693906945372,0.47201040423694085,0.3337556718662933,0.2737813991167872,0.27659987444100853,0.3048283946111683,0.246315420982528,0.20234442722749169,0.19436799720829967,0.21010732122495313,0.18472589410440854,0.17526828904209069,0.12553971153630528,0.10062712438960997,0.08574355975877346,0.09224104106606834,0.04611629731999578,0.056917831633181315,0.10702340991267967,0.17551755409133207,0.16969957151512727,0.16019806437857653,0.17679756264218494,0.26917672248280944,0.395584417592155,0.38096204822493185,0.2554681215647916,0.1703349050168983,0.1222950222458774,0.11937101584795418,0.15271771240343046,0.16816909599244312,0.16837053230359,0.16828148555230182,0.15595661591071508,0.13747550327431401,0.15405360696372128,0.1433152061154619,0.1898870592328059,0.20337887621555062,0.22715398900058847,0.2356011330575294,0.2235315202299244,0.18988370367652063,0.1684018333228572,0.14784514471560417,0.1411598224071735,0.16620408180446233,0.1747858126639743,0.17081499582358628,0.12579071043380186,0.12487990233734347,0.17219347415535147,0.22180584147084126,0.2121740935246894,0.23220090355825995,0.2855756298202534,0.29709688984781746,0.16321853452416502,0.11402451620836018,0.1722225027619979,0.17721921019250608,0.18509542160227976,0.1688314538099922,0.16848710574380732,0.17863611966478032,0.1801839803477412,0.17643972783670936,0.15274527537634874,0.10607427815274129,0.11748459609745776,0.14544201796915512,0.16763482464997193,0.1805321416033383,0.18448144083747575,0.16574022078034023,0.14120654692760048,0.14884106220549587,0.13134593737593292,0.10579192495919987,0.12453196114580045,0.13379435893498304,0.11205515560559398,0.10164956124653202,0.12574138391393053,0.1650192965673929,0.16842869759860957,0.18160658375245742,0.26114693835373703,0.27412285480829635,0.15777781019922887,0.11716503286062441,0.1312572440830424,0.10762599040977339,0.127960507912249,0.13555546165183863,0.1575599241119976,0.16830464812506207,0.16837053230359,0.16837053230359,0.16840513887224962,0.1785391510915728,0.22940432795261678,0.2575390141956735,0.19518653516910422,0.11336007893340483,0.06856214691070495,0.037586120388027666,0.005834543249994439,1.2961440770453692e-05,0.0,0.0020616684257683815,0.032659118949789345,0.05968278197485155,0.015869291959194953,0.0005739181173796126,0.027561440845210505,0.07645091683646399,0.07365565634489801,0.07534880617472339,0.08083949423592252,0.1530317848491114,0.2546615835176844,0.21396873219090473,0.10077471253578985,0.061888616140511665,0.03603460371498368,0.033674674966842844,No
0.5874567879428296,0.7004871373346129,0.6989861814117697,0.5727599978460924,0.5763729580002215,0.6072582232619768,0.6654602390186009,0.7019981071723631,0.658110520779922,0.646944679156733,0.7283710615628376,0.7532627256106537,0.7535082847170917,0.7574219653177803,0.761359407914914,0.6798749232249843,0.658690866222952,0.6021432228628134,0.5471767908793872,0.49001188566498755,0.4424909817019467,0.393972738013157,0.4420503524021937,0.4894998505227983,0.5379737765065737,0.6415161372392548,0.7318563835726035,0.7889112918904058,0.7820256450897825,0.7527089561592017,0.7215372070173238,0.6989956689035379,0.655698007493613,0.5914213326094862,0.46476004424653894,0.3072665614074275,0.3750701309928255,0.5571268044682327,0.6991352633733072,0.7927893179966086,0.7733330972913226,0.6762421434468759,0.6540392546960314,0.5780745236985574,0.5291320013693737,0.5069675952497281,0.4115677124052004,0.4020021565850769,0.47552973894652695,0.56412974296782,0.5860179962054746,0.6130731504972546,0.6871099123645337,0.7485931357672779,0.7532322400684901,0.7312479433414989,0.6970704070908011,0.7392676535571896,0.7492366792918359,0.7396101701166069,0.7073343248925168,0.7427381568275582,0.8115998913264688,0.8738613914543363,0.8619277719186815,0.8116810638508376,0.7914117004269929,0.7438664619899109,0.7447370195665899,0.688248688204582,0.6029625961641374,0.4881655543611636,0.3485850317544923,0.39848456699770196,0.5418054296977646,0.6868942008240628,0.8151811777381077,0.7830136677407102,0.802869420420806,0.8522761336714302,0.8490522226779573,0.7800557295360626,0.7009141177246505,0.6426724864545594,0.7080906764657904,0.7866783817766452,0.7660402440500684,0.6589121008177079,0.6116353635399188,0.5862868813824562,0.572359464686504,0.5448691625933471,0.5331808322418548,0.5133971911452848,0.5338263039015096,0.5256509598044694,0.5642813442301344,0.6592993255995374,0.7515432787534788,0.8428270193767764,0.9369946248313967,0.9999806725614846,1.0,0.9637149848092266,0.8886975438596805,0.7839166416405918,0.7033863980776385,0.6062694165448228,0.46855002866886597,0.31689546407768443,0.2225646630199991,0.3706125504429325,0.5150855441003737,0.6775164815794517,0.8414458739690405,0.8948437541133307,0.8119494671721998,0.7921158761816969,0.741837350415743,0.7273511809610156,0.6581849765584407,0.5745037191515596,0.5877927688276126,0.6932893316011715,0.7745656427867926,0.793202583778843,0.8235997253302791,0.8176371444122248,0.7556837647995511,0.7034912361056334,0.7052707083700795,0.6583320669311217,0.6259385358552061,0.526481284209285,0.42966568225496893,0.38262883793783065,0.4565894841542866,0.5393606850697603,0.5845716757509996,0.6447389641031025,0.6442511945819476,0.5725581406051479,0.39706843862502783,0.2411816617632887,0.10763289314514601,0.0,0.048091744022448424,0.19716399369797433,0.3533152581443373,0.49684456087712103,0.58789120091157,0.6805375587052014,0.7776026494864849,0.8547555823138167,0.8585139787693636,0.8134160571805324,0.714136261131662,0.6168001129569154,0.5155701637854229,0.4311168620915744,0.4017998003351213,0.4078092047918149,0.40502740285037575,0.40133676218384995,0.41789962401553193,0.44249449986468914,0.44684435109987497,0.48350896524126696,0.5248719658744996,0.5875977605566263,0.6228312454281317,0.5394834461317455,0.45504306526044136,0.5074225516877764,0.6009241300382273,0.6855926348628616,0.7231201057818986,0.6834679826341876,0.6105226906398142,0.5232601035601245,0.3561889643365559,0.21835137003240046,0.16242548142354796,0.07745973032219222,0.14637157612114038,0.30938642054177556,0.4571751647536271,0.5562225336916038,0.6058332280357108,0.6483510423832559,0.6758424347105914,0.6810357944013674,0.7308651729928064,0.7098520692874617,0.6400625217759277,0.5777517146520124,0.595464415044451,0.6234789233056768,0.6207039563296508,0.5759296132051794,0.5902941263997539,0.6397824793177476,0.6343103069235978,0.5500728000362463,0.4921574128825421,0.4511189851194555,0.42998586375182946,0.3440528812628534,0.27352897597608106,0.24299441885684203,0.3129999130304073,0.39253929630949,0.4291639723243179,0.5208881697159597,0.54881988594967,0.4796285959407367,0.37743783734396175,0.26947253165549157,0.12081733153802254,0.04887125470004339,0.15565884721870304,0.31428026862981273,0.4521147790393538,0.5343199963330125,0.5687607728459101,0.5911030339587873,0.6273481780760459,0.6619640471495831,0.6542210779802629,0.5665342900264596,0.4519130922202397,0.3920134045065886,0.35328936738713956,0.29045807589357153,0.2520230570051254,0.3020726810355514,0.36566015902340343,0.4352996347052889,0.4803177385322632,0.5247781727317955,0.5806688966920452,0.610297823975027,0.6110455560321633,0.6255363199165176,0.5977761389772178,0.5195049377510994,0.4976471489412848,0.5546761853618296,0.521264437230176,0.48293219130440956,0.44702672172752766,0.39149911238406254,0.3255686573384784,0.2181532608719614,0.09113082973154718,No
0.12247487988730477,0.10908287670744432,0.1167297237468623,0.11321088311120864,0.11254594242166949,0.10805534150975804,0.10644664432044282,0.1012061330998768,0.10446752132222237,0.09696536692508095,0.11860147973193325,0.17243963161528653,0.19873509441758364,0.2101276240186678,0.20983281080529714,0.19636033442972423,0.17921940544106496,0.17198079554008006,0.17019281668558062,0.15808910780346164,0.13540398694440814,0.14990802171590056,0.13027611122816873,0.1458158838590271,0.13522786717497892,0.12426940284621502,0.11993302831650388,0.12489802524107763,0.1260084017330727,0.1293336140942305,0.16022434370740113,0.25336742775983545,0.35097473153735725,0.44884584505626357,0.5591386162084055,0.6591053582457489,0.7718156126124995,0.8703969483924645,0.9200838187991787,0.8586998404728181,0.7578909918052217,0.6500766803606979,0.5414769381637403,0.43881344345308104,0.3237229811987561,0.2184062250631067,0.14832009957472403,0.15217134539995536,0.1755657309557721,0.1953235215664324,0.23061731953474363,0.2020520289222425,0.19561883309264694,0.19388550575179542,0.1768453263257821,0.1516145113025127,0.15299375541164473,0.1394849107021754,0.1442417041717463,0.13803203696295174,0.12735201639766336,0.09426652931707791,0.10966491644453269,0.11278030100885639,0.11354758021146916,0.09575808239043138,0.09629358962486156,0.11023885521459675,0.10021960930767282,0.1242828798387472,0.10249289357110403,0.1033280873280833,0.11126671097778296,0.0958544247106734,0.13042227903650838,0.12423397455488017,0.13249893077562414,0.1286462364017611,0.13561666225581614,0.13400059350689775,0.14390828083100127,0.1500436424525211,0.14724146496646418,0.15313570574796342,0.21921544176986618,0.3127604254139156,0.41307446532485725,0.5260517889880312,0.6262373871194646,0.7375847498940766,0.8387548892511836,0.9431806569266188,1.0,0.948019501081026,0.84686787254235,0.7344827178952347,0.6344044081007372,0.520881289880474,0.4052686443055915,0.2900616939669054,0.19381373317802986,0.17699991335044096,0.19969331737842078,0.22704594116228982,0.2398320780863208,0.25917090175407775,0.2819616227516124,0.2877384517084418,0.23332139255510453,0.20239297970573977,0.2097088629684425,0.20511032936923224,0.20839058850738645,0.18522684114200105,0.20131440194699257,0.19105194099813305,0.17984699561532658,0.19691795682158997,0.18341426005336192,0.19781947731809746,0.2047320447116996,0.19697124707094948,0.18915070517320798,0.20874146212051903,0.18824497085012704,0.1880256472045989,0.16008627811764464,0.129774005543017,0.12747751596013668,0.12920113092562735,0.125981994377252,0.14325198586460708,0.15377992102192595,0.14916849431323342,0.1030471806054245,0.06236912179074228,0.07512207856091901,0.05315110048056981,0.05353743043423487,0.05080833144309471,0.05753104158117894,0.06422542867338965,0.07778237595161519,0.10390131761508092,0.11612348640100656,0.1121797961094746,0.1174168839920875,0.10894209057537108,0.10875200347072989,0.10872043539103693,0.10395240371426828,0.10164194391551806,0.07990100421817337,0.08952778542173068,0.12064036997944738,0.11558285178529504,0.11911907028534463,0.12469069404443278,0.14135994269593954,0.19016211608887756,0.19534290143307498,0.17687413100932448,0.1603526731595033,0.13275111618686353,0.1056201671650383,0.052210616536210175,0.0,0.051179627611583456,0.14687856363637497,0.2556168290430749,0.36319091919428903,0.4668175648418478,0.5717232834511248,0.5522551246129277,0.4523356361784545,0.33982347332308205,0.2440055707353599,0.15706368117209069,0.09741526450613369,0.05820095169358419,0.06677243200633054,0.05734689739448218,0.056674419476715254,0.05637776280722129,0.057201413562376846,0.060970008955381516,0.04559821234235484,0.03536960692070501,0.05495539127297855,0.01992036122568841,0.027170462332435363,0.030636889599335415,0.0312750689096859,0.03809278303802932,0.01419870522998723,0.017035403879436473,0.020250296544797486,0.01498728379188563,0.02891079677456254,0.03716065514134925,0.02354525338574609,0.015055054070487461,0.02856912512645149,0.0555686753991651,0.05990449417056487,0.06814403915525702,0.07271769936482375,0.07965703249205491,0.09408154607937913,0.1209991722846655,0.11569217387503183,0.12752783581639449,0.11694821266575062,0.1144867276567747,0.07988231013004965,0.013992946319296706,0.010026934688107225,0.09478899321592316,0.19660910435875056,0.3033629034376526,0.41382285615716885,0.43466264506192953,0.3460376803124414,0.24694513339063917,0.15775401810457979,0.08633434538621287,0.05100609412498436,0.03876997191762044,0.04369019713733069,0.04778326459039839,0.05916804684589616,0.07413167068988225,0.055179016290914706,0.05497888602216072,0.04988956915619003,0.07216176026524623,0.08093310194588188,0.09674499036411843,0.10884617464100188,0.12018442922356032,0.12587260142077206,0.11934687678114031,0.10950295964397139,0.05345401063517752,0.03405459799785948,0.01688822189370942,0.015515901799042275,0.027308289025409938,0.021948266867368726,0.02363949619901673,0.027208203003913578,0.03518360044009494,0.041386057021288725,0.02785000788015468,0.030103949648092154,No
