0,1,2,3,4,5,6,7,8,9,10,11,12,13,14,15,16,17,18,19,20,21,22,23,24,25,26,27,28,29,30,31,32,33,34,35,36,37,38,39,40,41,42,43,44,45,46,47,48,49,50,51,52,53,54,55,56,57,58,59,60,61,62,63,64,65,66,67,68,69,70,71,72,73,74,75,76,77,78,79,80,81,82,83,84,85,86,87,88,89,90,91,92,93,94,95,96,97,98,99,100,101,102,103,104,105,106,107,108,109,110,111,112,113,114,115,116,117,118,119,120,121,122,123,124,125,126,127,128,129,130,131,132,133,134,135,136,137,138,139,140,141,142,143,144,145,146,147,148,149,150,151,152,153,154,155,156,157,158,159,160,161,162,163,164,165,166,167,168,169,170,171,172,173,174,175,176,177,178,179,180,181,182,183,184,185,186,187,188,189,190,191,192,193,194,195,196,197,198,199,200,201,202,203,204,205,206,207,208,209,210,211,212,213,214,215,216,217,218,219,220,221,222,223,224,225,226,227,228,229,230,231,232,233,234,235,236,237,238,239,240,241,242,243,244,245,246,247,248,249,250,251,252,253,254,Target
0.723073912629975,0.7161294195375627,0.7217082197383082,0.7347789579232493,0.7362184757647441,0.7264673708777734,0.7105770838958889,0.7224630508082788,0.7494867054066943,0.7294122921051538,0.6561374658751777,0.5767293916781826,0.5006778138295322,0.4197772752873117,0.34198363204184123,0.2645289141674759,0.1835563444094679,0.10731774680587058,0.03149627847382741,0.0,0.05710350934571384,0.1378164260041922,0.21927053916698225,0.29839653149057854,0.3746911318356754,0.4558052383624176,0.5372856330444189,0.6187663141887594,0.700043554478661,0.7768874417843945,0.8405362581141693,0.8152445114531437,0.7559009407215322,0.706712741915366,0.6626355442058489,0.6241015183197713,0.572185543323825,0.5191076353633552,0.4636639965163267,0.41218850543651,0.4019936409186622,0.45137060980123844,0.5147202863952451,0.5783085147272533,0.6415076125598984,0.6940454855521225,0.719882334990517,0.7177923323868896,0.7077767097643901,0.7073525837360264,0.7132323997288958,0.7096672757226274,0.6896222634987941,0.6902963322817499,0.7192327053348297,0.7350140631909403,0.6822746962183603,0.6077624053899113,0.5294060038853625,0.45177119678893285,0.3742092563591468,0.29293605749453544,0.2151345811233185,0.13790413544223767,0.06438752612851273,0.047305496121181956,0.11528821479444828,0.1919512076921397,0.2704889296974049,0.35192401780467875,0.4334047278269815,0.5148557732797521,0.5938314128455588,0.6702120565238174,0.7475935634883497,0.8170385776306217,0.8533247675192199,0.8001238572819609,0.7431041973600416,0.6960776337690837,0.655235541362511,0.6098952372727329,0.5609622185663639,0.5062498596678118,0.4535006852786687,0.41552992025275626,0.4340706938536134,0.49189036101601546,0.5561225552250604,0.6232662360843528,0.6802571356462472,0.7222968342778879,0.7447840592757042,0.748530593385067,0.7427498545362059,0.7542844912908795,0.7666895165542387,0.7625782844186213,0.7413007277351886,0.7465341020537442,0.7747551081997672,0.7772371654147792,0.71734162832785,0.6421409928136979,0.5652677086201225,0.48399180607038916,0.40251112528702304,0.32106782246945265,0.24229796388129932,0.1662480825660898,0.10507622329659683,0.12926802935526638,0.20625346914758502,0.28661911893578085,0.36231706929622653,0.4427416967237867,0.5242188525139251,0.6056995535118643,0.687033087843312,0.764331398334958,0.8421668119886363,0.9057406981504894,0.8734909715247305,0.8066267052346889,0.7537176087035447,0.7076106740508092,0.6675975005976595,0.6252674265819822,0.5744977950265886,0.5193181949544716,0.46286363611994585,0.4231404169383137,0.4471548888964576,0.5090395929322509,0.5727326877104266,0.6312131889693711,0.6758744249867723,0.6807022754880618,0.6782822314814598,0.6949032060297009,0.7053066429296022,0.7083682378299736,0.6753788035090249,0.6216631977928004,0.557544318168983,0.4925156032891582,0.47241805620360067,0.520043309202505,0.5780053699165979,0.6282235537837197,0.6733300531901125,0.7140827950445026,0.7593591203101859,0.8095270143858371,0.8712408739570641,0.9379123784806633,0.9955895663159604,1.0,0.9329983713214525,0.8555408665359201,0.7783089206915366,0.6969803579564,0.6155005562720919,0.5358701345610186,0.5089370728522447,0.5740783406360996,0.6514666049562572,0.7268052916367551,0.7928788449610944,0.8109934729635462,0.7894140921060828,0.7705598471062163,0.785956922453144,0.7891239254819127,0.782899706677858,0.7710884875523141,0.7708279069428814,0.768322185281406,0.7484075747466705,0.7118205582082893,0.6578745871060467,0.5955195485042275,0.530670258334583,0.4700608086168485,0.45277233678920625,0.49785101339228977,0.5504793688943876,0.6037953606277469,0.6511814918032806,0.6932050466216579,0.7348703311453495,0.7892110912536388,0.8555548302467673,0.9257363938431113,0.9787180431906848,0.948851179079832,0.8752572511265451,0.7942340521829021,0.7127538287396391,0.6312731187173382,0.5497960661984143,0.47175019566954823,0.4614289330637491,0.530137599444582,0.6083863978541861,0.6832304290790927,0.7503056429598178,0.7681396274893211,0.7395576970575231,0.711907737443666,0.718850676335834,0.7357408902801841,0.7344481986707396,0.7309562988705132,0.7319818581269171,0.7417450679208899,0.7436708663456468,0.7216261461175302,0.677150803750749,0.6177004502088312,0.5547574818695828,0.4884705561285343,0.4348462753318012,0.45403569050737325,0.5094885410315251,0.564997531671374,0.616800674441758,0.6623457070427721,0.7025789161512812,0.7485503207664073,0.8054050927616729,0.872205070260319,0.9429151953648909,0.9984159702264046,0.9712085444574519,0.8953833026136755,0.8199365691452765,0.751514299855637,0.6744431249901617,0.593007244747614,0.5131589073958132,0.4825996190789823,0.5479442009111917,0.6233808379122188,0.6987208472289095,0.7607165609007356,0.7785991470320475,0.755225391711281,0.7401474800768826,0.7559049856217839,0.7634288759421193,0.758486250633752,0.7508522399855821,0.740959363131652,0.744106517603198,No
0.3197298906433077,0.29820036767864666,0.25612864334683794,0.23343751434712745,0.21169202071405024,0.18418034044888598,0.14146480676992912,0.09576206986652425,0.0708012680139718,0.10975242448274258,0.1767209731338717,0.2532392083685111,0.2970227128552536,0.2952828161165404,0.2990953225420161,0.28668371985074215,0.29853638666095206,0.2918970581526641,0.2955871958906049,0.3075401180800559,0.27808334755086994,0.20544152009342165,0.13502928185712948,0.14230278323472367,0.19598802270223858,0.2386801953643185,0.29555138011511195,0.29770653077186315,0.3166870276871676,0.2977112074907651,0.29895511667623653,0.2749440689399649,0.30493380051600516,0.4003624085065085,0.5310179981134531,0.6474334271225923,0.6236613007806766,0.48226691136144284,0.34708881777013323,0.2095880230525462,0.11230058592653824,0.16428329855914248,0.2821685129659959,0.26576025945336257,0.2085253937107132,0.18115512738257378,0.15370434117808296,0.12283373554170707,0.07962928831357896,0.024689045390516196,0.0,0.030581385240471715,0.08833667698977177,0.1543004756031534,0.23391864223242598,0.2841956321687005,0.294496131941973,0.2892808391114339,0.3062985207854818,0.3087436704873583,0.3087467620997324,0.3086574217040332,0.30085291390205837,0.2736371911003519,0.20327958987314654,0.13797753890323605,0.14653684444197435,0.2156079269832163,0.25823356538272124,0.316456937628804,0.3500393209880399,0.3366446821171789,0.3363744864074705,0.33456485505419353,0.32694312918727464,0.3892762676871393,0.5091819979627492,0.6414893380050946,0.7366232078720851,0.6532143698825306,0.5077015143173242,0.37712705063533436,0.23516255472392045,0.15790394521050644,0.23890737842412557,0.3262050711125801,0.27728507232032973,0.22935188391592698,0.2010936895356461,0.19161274436112752,0.16288667365271525,0.12610077135187492,0.07079085994688405,0.04531547898521948,0.08588191958460634,0.1393319619662301,0.2154492984414298,0.28759058045811914,0.2975081557070687,0.3327589143477838,0.320832068149731,0.3172904770713516,0.3175517229915239,0.33115354626165283,0.3275657040279403,0.3172995845495614,0.2965708336073729,0.22650650905527092,0.15709088534419413,0.15001853271892607,0.19424756633091267,0.2669407342453005,0.3225621116949067,0.32826993184155073,0.33581381533851085,0.31739294043417443,0.3151424504477629,0.29376086915149413,0.32325431986053355,0.41269734239722977,0.5381376029373475,0.6710875891612784,0.7252210574474156,0.6069594093537076,0.47639875658489084,0.3318252556565411,0.20284413278365943,0.1126078694527064,0.18359970046197516,0.3173327164093114,0.4538869549651028,0.5903120492059171,0.7273359095513832,0.8628676197067917,0.9646048641267169,0.9404482225709851,0.8238438200889653,0.6958201127087205,0.5608696312990191,0.43861709341630695,0.39779473246628205,0.4155314678777029,0.4306062532054269,0.4328665144795907,0.42126283687516564,0.3616462204612332,0.31193805126124863,0.2736444474061446,0.2844793048105072,0.35776097930643447,0.403607880428829,0.4018316384657994,0.41578646357284876,0.4332738362388988,0.42303499110855425,0.4306146084328639,0.433129924939355,0.418848624683545,0.39904121942532056,0.3525849841788209,0.2675465746487826,0.19621839772321925,0.1388856773069187,0.12887517366359802,0.182359361469572,0.22110304751172238,0.2606894123660388,0.2756600119334016,0.2900182798035611,0.33079291482724704,0.40067516328222785,0.48690541426340017,0.5453457848342249,0.6156439196804011,0.7454510333271798,0.8767112133282935,1.0000000000000004,0.9862345510171147,0.885597538303466,0.7592046236777841,0.6264507473577994,0.49126710085418557,0.40993472367292627,0.41567843971614105,0.40860154738657206,0.4153055435190116,0.4143839252389321,0.374772522316841,0.3157154294433471,0.27089956449384234,0.24282094916875385,0.30566664744724603,0.36733820588885857,0.376388904909136,0.39013012694458604,0.3915534323059835,0.37847523306822817,0.38701796910194863,0.37257353865455256,0.3739736451561373,0.36485695709609667,0.32907245689557785,0.26220495537153843,0.18624526709616385,0.12124496196219958,0.08134731674959994,0.11637360776666617,0.1670179463368986,0.20074058209352197,0.23031235951567686,0.2562279392656319,0.3017235705631278,0.3775075234550358,0.4569011522359472,0.507881551395061,0.579604747163621,0.7224976985998528,0.8517341299046852,0.9439523299541839,0.8907379470483101,0.7692051515430482,0.6410467353517881,0.5099401264815353,0.3940962235186096,0.37031142764524505,0.38354374527172785,0.3867511363506311,0.3949319412329175,0.4070417091870637,0.37562572745847644,0.31445630121667767,0.25925879333735447,0.23796976364574762,0.31489167402437124,0.36360723816008944,0.38508905477717326,0.39172142026717127,0.38694281770868466,0.3834012709845429,0.379440072127752,0.3918858447011364,0.3885486000171281,0.3594001696096396,0.31116082069778317,0.23552898638017572,0.17013710652059366,0.16620624163952336,0.20763307799282682,0.2581838139564421,0.2869925145654366,0.30474239979391227,0.3256585824098255,0.36118940690968104,0.4519462089157247,0.543372817183053,No
0.7769894403114952,0.7268749895200437,0.6710823476678551,0.6048678239255589,0.520504171524018,0.4181355396073574,0.3155999486467902,0.2441575002954406,0.19434805066111727,0.209709379038427,0.26494422737779466,0.34219637169590333,0.34681014354374273,0.3684532349068492,0.44795821367498645,0.5336871255634112,0.6264699795560755,0.7200817181743298,0.7813128716768856,0.8081921815575757,0.820354225740124,0.8206239087008096,0.8206540918108458,0.8262416903617109,0.8420204696443623,0.8524292102772213,0.864961001295605,0.8654747274657719,0.8759108491125618,0.8732357753382196,0.8251980648054578,0.7809424347341647,0.8048581086503308,0.8620336959164105,0.9052454526123603,0.875961669856363,0.7659761776676244,0.6388676191226543,0.5154192257562884,0.38697269840458715,0.2516173286769412,0.1311989901782713,0.013900948599093077,0.0,0.11627123619241697,0.2500718942177711,0.37008737837775474,0.5041773569378569,0.6286349700071439,0.7538994441445674,0.8549273916958255,0.8576077766192882,0.8422925449217464,0.8251662325090034,0.7985008472360264,0.7585612081885933,0.7009674146710845,0.6377938230823181,0.5609655605770589,0.4817208959173729,0.40241951036864076,0.35899259253777993,0.3842194361707434,0.4664702679452395,0.5534017997226712,0.6444608224129778,0.7306322346580267,0.7985656920225455,0.820008444767693,0.8206239087008096,0.8206239087008096,0.8210024540895211,0.8341849534739532,0.8564413696435116,0.8652204401941641,0.8701819232482104,0.8863110734717261,0.8874286239869744,0.8784828476379234,0.8530909088236305,0.8026747881029999,0.7886558246425119,0.831941843983981,0.8924177787191798,0.9172057169280912,0.8649521447073973,0.7451351957009016,0.6254387307852225,0.49276199432165146,0.3725558123468389,0.2400445516209868,0.11770164182391119,0.03893442460860319,0.08553414561609785,0.2160246972420743,0.3528617993512939,0.4829847900167441,0.6035108230899402,0.7082802913128492,0.8076804426002875,0.8713594992738378,0.8487565744675538,0.8423301203575297,0.8270847004236095,0.7984313925296327,0.7417941908898693,0.6737522670609586,0.6048710926713499,0.5256692814370352,0.4445578926566758,0.3795649014196254,0.36067702649260713,0.40836126474039336,0.49799581351875055,0.5900926576955361,0.6803876354947693,0.759796487962972,0.8116411168473072,0.8205790355777993,0.8206239087008096,0.8206239087008096,0.8207016106024918,0.8286325204711056,0.8424203902759579,0.8430798163897975,0.8522370841679145,0.8649326982131549,0.8632979323176695,0.8296215224063062,0.7747650782421553,0.7664480544929941,0.8103453261099527,0.8723011452219076,0.9002275603463139,0.9583662445430794,0.963861469531468,0.9378911110854231,0.8696070848302293,0.8442475304155312,0.8918251444502068,0.9343245350184559,0.9285671074170825,0.929971922512578,0.9207439371057382,0.913536725843803,0.9042914849874846,0.896527525113537,0.8877836541211184,0.8746570246252614,0.8749043905599714,0.8862516924793868,0.8870887238386507,0.8740517908242609,0.8385773690296654,0.7743398715430518,0.6906745465217403,0.5994574691461523,0.506582859351735,0.4401786813946833,0.4776572522592506,0.5524191214187466,0.6431246055761948,0.7142761803534476,0.774245555260066,0.8377892481857412,0.8804341401387692,0.9084870308660857,0.9188917999168145,0.9314030835789562,0.979759922559492,0.9770652071997068,0.8762464088947306,0.7557880632162726,0.6273911627661937,0.5358560928595884,0.6073892532114278,0.7366173222171559,0.8561993695952994,0.963054031332665,0.9999999999999996,0.9732670862917745,0.9398835963992407,0.8740175747687076,0.8785209317095553,0.92189643404997,0.9514533540399799,0.9416917397283062,0.9411876129291019,0.9346624136144555,0.9196457130670135,0.9176467356020104,0.9009571816054112,0.8817626620814623,0.8743606490462859,0.8818681231219223,0.8865179943119363,0.8739709876749688,0.8471295248135369,0.7790492492605341,0.6948914466913885,0.6040145249564253,0.5113309252041054,0.44353975611271945,0.47673703741579576,0.555032535169282,0.641975770240033,0.7114443914226509,0.7736501989638369,0.8247615684680438,0.8633826995245437,0.8812334005193292,0.8963075523931061,0.9108635949318034,0.9607060400993142,0.9860840774206752,0.9138481485730092,0.7926704250694772,0.672567930711018,0.5635547306150048,0.611386430637384,0.7349563346223147,0.8540210424494199,0.9637926761857618,0.9984461806628242,0.9734716071379927,0.9344362187259647,0.874181051936195,0.8765354113742796,0.9175516389509064,0.9406916056348806,0.9383559974375006,0.9214548766947765,0.9188907118117102,0.9152775800312032,0.8976097473641618,0.8864955879597956,0.8769625623918396,0.87423334050662,0.8741987980330967,0.8687027125939037,0.8461630012022798,0.796145978488938,0.7124230312076261,0.6253453234647486,0.5463799162065208,0.5362038112889445,0.4607587584473922,0.4848823938036362,0.5711145326840712,0.5882250317999818,0.6092819500936764,0.6865472678368234,0.749354756382036,0.8066211980295797,0.8452706176912987,No
0.7458846884125359,0.7851935660366223,0.7910929567090803,0.7743523403210317,0.7825450237554363,0.8072625844671255,0.8280506679259623,0.8339801795733077,0.8235545944943141,0.788528271906475,0.7799087468456634,0.814529773083372,0.8592183488252694,0.8826787684670092,0.8463297921123825,0.7696694912359938,0.6844841145363656,0.6037921762063012,0.5206881638115533,0.4521922998495769,0.3712383350863755,0.28434178541818267,0.20355683522168722,0.11655097767892308,0.04476539708178251,0.05465563881403912,0.1359150261620754,0.21672534774808616,0.3037038699640666,0.39220444532070675,0.4740754813863164,0.5593962939808124,0.6480211940659419,0.7306304551261504,0.8143303243360869,0.8725837967268337,0.8618460862025659,0.8308630945540472,0.8131334402610684,0.7894420686570554,0.7493408275560618,0.7412369502747469,0.7716419713602778,0.8018667436434403,0.8395135402089193,0.855708574421707,0.8400894877842853,0.825100997754493,0.8459785314331092,0.868696513395065,0.8832958706164962,0.8909673859919465,0.8770332015236364,0.8445744124402466,0.8454584556288336,0.8840398955103659,0.9202021886774174,0.9125570997738575,0.8542183165786577,0.7680329965732255,0.6872589404962055,0.6008641579375005,0.5197714437099841,0.4333574867800589,0.34657580622344963,0.26821417198711295,0.19637724714984417,0.11540339870118332,0.049718750499835984,0.06840928218580666,0.14433415125093352,0.2307857412078942,0.3195342451403109,0.40309597089717,0.4865721232858835,0.5753264032365453,0.6642156115395788,0.7531048198426109,0.8418104665704029,0.9216693769727979,0.9442424625853056,0.9151716849262843,0.8798801685510371,0.8422218541790927,0.7932628181878667,0.7392909666302694,0.7022604093623908,0.7117237396977427,0.7413773450060481,0.778566139844979,0.8042508187138702,0.8019205719647677,0.7761093847526561,0.7653931085259453,0.7846734529631294,0.8030801245542838,0.8188758110658723,0.7972552908977459,0.7636778265823396,0.7538706352008875,0.7878022043168496,0.8284524113878549,0.8303947308851649,0.7694896448858521,0.6909945225405709,0.6305759533503552,0.5604086839441036,0.47940526239276005,0.3944932844011011,0.3081873395368111,0.22706346496145402,0.14003343625907072,0.05986768568214118,0.0,0.03866149099792282,0.12570348025471545,0.21450583487138553,0.2986928389344037,0.3815643080459854,0.47025341090062867,0.5579270359024326,0.638648197563235,0.7254711235951894,0.8058875386189486,0.8485509249392968,0.8377775516394554,0.8194764361884259,0.7791048453741689,0.7363989959280259,0.690205916475733,0.6621492532050088,0.68286629675423,0.7234604581241717,0.7642985490359204,0.7910079722724246,0.7939731702514456,0.7876741907384179,0.7720749804534042,0.7754038424109306,0.7889519820802571,0.8097866702919729,0.8181252818938016,0.8057832837445043,0.8074808714377728,0.8208795474357038,0.8300583683916118,0.8225653259145944,0.797727242544976,0.7594186481883876,0.7158534093449522,0.7072761846578148,0.7508780010511729,0.7938734077450509,0.83447745702632,0.8668598049013616,0.8879357955127158,0.9148788746591285,0.8759393282353456,0.7914913459419528,0.7030408125532364,0.6213449880758415,0.535813319105916,0.44729600288706095,0.3811270215860254,0.4221520093906055,0.5091547513028503,0.5901748278444858,0.6753282179182747,0.7551448221952561,0.8312034430318367,0.872885896282519,0.8673986590727636,0.8378507446702419,0.7970166076890741,0.802153622328438,0.837539498934168,0.8520506072603031,0.8421121018523554,0.8245624958667575,0.808242729009935,0.8196638195102992,0.8424861029485988,0.8392387242571486,0.8131840679764892,0.7782820335166247,0.7470702056382434,0.7524953187167331,0.8016711632309104,0.8538992427011591,0.8956958484818216,0.9299520081103734,0.9641612461274067,1.0,0.9995711064070445,0.9313140942577944,0.8482023226708248,0.7671685404854125,0.6808144642600005,0.5923800533023988,0.5107486599380298,0.43495548299685693,0.4553734993564853,0.5406306164543673,0.6213860798423898,0.7073135149098437,0.7877915436717928,0.8680376019923017,0.9323425508023861,0.9562186689477739,0.9482804507104103,0.9063404688235996,0.8812694279879263,0.9065065853424885,0.9319123377029939,0.9255601990447953,0.9182130345591888,0.9036575015143,0.8765625769261916,0.8665149255096327,0.8862356358612513,0.8956472196957794,0.8694337357019373,0.832552622649275,0.7940816865987324,0.7810546108340619,0.8172015091257865,0.8467568421707314,0.8687138019872811,0.895778471472434,0.9308446832028101,0.9424893592117796,0.8811079523640271,0.7984748235683337,0.7155855028529357,0.6269109799963706,0.5435672231311535,0.5350820517947075,0.6160310237682547,0.7000953288710527,0.7823419862903362,0.860930512713532,0.9160832123382665,0.9183748346530562,0.89338980663268,0.8472366436270875,0.8252940882513031,0.8512274689858113,0.8690290890705892,0.8668258207221136,0.8579951569897604,0.8318904485514746,0.8087037557368928,0.8182577778114872,0.8235696286628595,0.8018701228734235,No
0.5107793319453242,0.5626353807539681,0.6290789185631365,0.6715366215299368,0.7333897392411659,0.7881140724451625,0.8270544180204669,0.8404640963277232,0.8326735277138733,0.827793904975765,0.8158392820116676,0.82231460466918,0.8379423040417122,0.817800788199379,0.7999070101448598,0.8055071910268816,0.8452224024391379,0.8643636220076985,0.8527194406135348,0.7803331244811176,0.6944221989501169,0.6064673686194759,0.521041073236687,0.4294367608488636,0.3441086539338314,0.2559501958682271,0.16889694502118702,0.08414129683124494,0.01913022529672559,0.047660229040920044,0.13555153300674827,0.22774768122146472,0.3165402909041024,0.40144744589509695,0.4932460573469073,0.58549123652782,0.6777349574420739,0.7688311558882921,0.8389080045200799,0.8726921270074983,0.8790373627148049,0.8557430095670642,0.825107925891041,0.7762972430399384,0.7270473113681131,0.6820759450205396,0.6560017739688373,0.6852917763251603,0.7389572442564427,0.7890516378625339,0.8240393091454914,0.8283397841278124,0.823697566308194,0.8091469347196674,0.8008600316634251,0.8077286215574777,0.8040113974654284,0.7841758449852823,0.7858334605088488,0.8224863782520238,0.8594198106847226,0.8697670970309652,0.8329131081164745,0.7510646169214035,0.6624836466158197,0.5779563019312641,0.4880055673193118,0.412697597929075,0.3351283689833764,0.24853731153871572,0.1623631113505437,0.07638130885637717,0.023924649247721863,0.07899186792411927,0.1662594825576258,0.2518434359185129,0.34380602873253086,0.43605118025400325,0.527849917267301,0.6127035472077556,0.7015476670278162,0.7928008030814115,0.8510792255441284,0.8625631540337033,0.8555683298391532,0.8318938660058395,0.7937735970544415,0.7467440561198417,0.7005073300655564,0.6611094415292775,0.6694631794533303,0.7222138787261629,0.7756326722358005,0.8212383749147898,0.8413582050397801,0.8416005720216828,0.8343911748455377,0.8273993772325687,0.833482718662572,0.8248881387977969,0.8015926773798856,0.811337591152339,0.8506807950649533,0.8769239379940297,0.8670192423672927,0.7955596732304175,0.7081724739819295,0.6239004909365455,0.536953478736311,0.4666187225386649,0.38348198490757546,0.2924988067698375,0.20855316230248433,0.11898482036439217,0.03685267767544609,0.0,0.06613288105153292,0.15063344092900643,0.23948156879318594,0.33169524838580355,0.4239404986909907,0.5161857489961776,0.6084309993013666,0.7006741182620424,0.7901897977000556,0.8361605250326829,0.8584611190077489,0.8625631953230595,0.8437542926679165,0.8037467406569501,0.7533068583261391,0.7023640300680685,0.6623172768978629,0.6656444552564866,0.7157479706461436,0.7735640370095542,0.8123756753822495,0.8421561072281376,0.8436686462678511,0.8043222613609251,0.750969096166848,0.7055137253915333,0.7196481677230571,0.7687213154144084,0.8172444731091533,0.8630438361831989,0.8876189037074269,0.8982684682172852,0.8970847614580659,0.9227867932833775,0.9663341701031607,0.9163227118880874,0.8261550487309008,0.737688277983132,0.6525356864866867,0.5606508768385474,0.4684062674048768,0.37851732630237045,0.3558311514472501,0.43702358862048785,0.5222630795688932,0.6103712989176384,0.6962392080965805,0.7833158672515679,0.86746706667881,0.9371316614885528,0.9341415806695523,0.9102041794230433,0.8963844873868323,0.8546857829642305,0.8400493030867131,0.8606032266584263,0.865643312298616,0.8591177364755875,0.8676291108613776,0.8780155429732734,0.8748434317365394,0.8579193751651928,0.8149472557336725,0.7599599146042986,0.7080685449661162,0.7122396154093527,0.7599541735732869,0.8049958792329059,0.8483061563122847,0.8771792019126639,0.8965129103021106,0.9068103886085646,0.9527606386303269,0.9896503055272801,0.9270200960885422,0.8352732400037024,0.7450324329913769,0.6610367772176193,0.5703444059941378,0.5123430840234084,0.5709789520754516,0.6611436984777663,0.7450197110612986,0.8331589845131648,0.912720860734874,0.9464525775499126,0.9075329495233246,0.8962403091651141,0.8688449743054107,0.8292579204616246,0.8251449940031337,0.8432694674510774,0.8436825967085693,0.8414275336786738,0.8553233768475308,0.8648816534872967,0.860140668836618,0.8422479791744268,0.8015943030939956,0.7450401892566041,0.7023339585938235,0.7202466876958218,0.7682760478272299,0.8184923262811561,0.8624285645930918,0.8898540676432298,0.9104679419388046,0.9122572499504553,0.9473317384198485,1.0,0.962571416434292,0.8731838666718557,0.7809433193498345,0.688698069044646,0.5964765751001055,0.5091793956639927,0.488463830115049,0.5682849277417601,0.6538752479228656,0.7407595697530656,0.8242871570560506,0.9042597544502042,0.9455900864588154,0.9134748097693797,0.8974869338039742,0.8647793309674381,0.8301061912085601,0.8410015787803766,0.8652059915721502,0.8640668842956738,0.8492563784937601,0.85494893312882,0.8613799657403569,0.8755139648767454,0.8687626100904517,0.8474496023337192,0.8056892906730495,0.7517614449683137,0.7021016597491352,No
0.9072164952015653,0.9134770185337544,0.9124086925770087,0.9179050732231646,0.9190156512855514,0.9163952269801561,0.8974306791501867,0.8981966454181958,0.9259666729011238,0.9403698431278518,0.9445518238520827,0.9095932035418499,0.8395825800960708,0.7584172360977885,0.6771577138279912,0.6019202757599378,0.5238186304166716,0.4423046605748133,0.3631881330737683,0.28870090121159464,0.20810393917007985,0.13650868706428332,0.11440044206460775,0.17185824281196738,0.2463529813589036,0.3273506032526312,0.4037215582234863,0.48058889540946326,0.5612233868227894,0.6266367846469045,0.6951969819101531,0.7757082097148553,0.846316214325066,0.8935664839023305,0.9079422030670363,0.8989920989127884,0.8795437210971093,0.8489726890698315,0.8155088189442838,0.7929840376796902,0.8093803255673233,0.8573756336002378,0.9060955012446845,0.9253599273699746,0.9126890818948268,0.8946736228311287,0.8884784179467153,0.8830390552613785,0.8862464238912684,0.8919548527574046,0.8922871076236218,0.8913242598817792,0.8871180318313832,0.8687049288701241,0.8578029087391703,0.8845953033841973,0.9062226041204635,0.9155573380790765,0.8826432902038448,0.8108410244658568,0.7348424955950568,0.6580447527522963,0.5775415574689351,0.5094905307009121,0.45412815576558563,0.39975191317393577,0.3451468144135066,0.2838797257708794,0.2087457261535386,0.12803052300268924,0.062402184904164715,0.06854813673027471,0.14194658786420256,0.2157919294072299,0.28737430700453337,0.3548698672228139,0.4293753266005145,0.5105156856530115,0.5898385974019411,0.6641934081225402,0.742681580671567,0.8103941365212748,0.8578959916154627,0.8828219210016233,0.9070886443734361,0.905856734001736,0.8786013575449569,0.843574795188597,0.8097053552561022,0.8031368040503244,0.8432280419507474,0.8980146888611862,0.9388190486120558,0.9468526663101378,0.9363385367751684,0.9238170915856234,0.9195643902787844,0.924669053013752,0.9253316969863439,0.9318673392905263,0.9346307920955395,0.9355022730968994,0.9092079846605534,0.8742075439517223,0.8659973955518641,0.8926561176667007,0.9124673122629845,0.9040478814190973,0.8556363803482396,0.7829616195260567,0.7089223742392412,0.6281333787941261,0.5496524598126569,0.47472328220781024,0.39354834062398747,0.3129233383861787,0.23882520401560825,0.15901545390483995,0.08078358301259136,0.010227239601969251,0.0,0.06432678717141371,0.14289618609654198,0.22360819619233552,0.29782778868205595,0.3774368388975149,0.4575721662039953,0.5316298782587927,0.6105150653060578,0.6839930005349137,0.7524974034112366,0.8063051193254605,0.8414235946340958,0.8644084584976419,0.9027705910064203,0.9454739866795725,0.9568535611678308,0.9318367049120946,0.9582137151373211,0.9961867688491894,1.0,0.9635563789137533,0.9217860849575197,0.8847926767585916,0.8618772039626466,0.8229304345859825,0.7726885267360413,0.7065748831199621,0.6328782679840548,0.5534731041992491,0.47941927368386494,0.399529275632696,0.348051621832665,0.38580537774448054,0.45091519401239877,0.5216414568442376,0.6028401478152992,0.6843844718380641,0.763037724713038,0.8357561250188765,0.9058486162028678,0.9516769397996043,0.9416833782528002,0.9470030925579225,0.9288342738802056,0.9038173937856651,0.9194257799569336,0.9516697501172628,0.963271178044125,0.9635615501354169,0.9587308971321988,0.9532106287212441,0.9469694485371722,0.9515672713910908,0.9622390814892601,0.9775357718991327,0.9820546457328196,0.9610049602492736,0.9156691380773034,0.8616070169618322,0.833366346404786,0.8607127036151967,0.8942997610047305,0.9254900500286674,0.9425445050833372,0.9373523819793652,0.9101793118833705,0.8884383916871745,0.8461169066491219,0.7837024437470865,0.708130467369297,0.6267138549426341,0.5451643581190491,0.4662772334855414,0.3944223612990503,0.3821440934262952,0.45641258642892923,0.5354971361909426,0.609997081821023,0.6909317758687701,0.7689531573240342,0.8438757757723314,0.9170859011365446,0.9689373250991253,0.9556394391022689,0.9424644758334879,0.9277266658944849,0.9038657317344148,0.9051709636661813,0.915686072738721,0.9200999382806883,0.9217065375644795,0.925629466999407,0.9165506875054839,0.913788329288767,0.918962324055576,0.9294550078430952,0.9444479540977957,0.9523166591028474,0.9356720715624627,0.891948534908936,0.8429750990200666,0.8281957785268297,0.8547329378723549,0.8894238280480269,0.916318197930643,0.9311638085561729,0.9392895856339694,0.9307749117634521,0.89290104315687,0.8318028887380851,0.7603532620061919,0.6848481665772361,0.619009850706356,0.5485602042633595,0.47970271481009097,0.49551387343919573,0.5741667130149781,0.6527011247728352,0.7275811760203033,0.8065471674378821,0.8799348075185358,0.9505174914470429,0.9935947061889141,0.977224952921222,0.9653000142629198,0.9483566067479252,0.9250202439652568,0.9371324105609498,0.9506134498724939,0.9493209001202714,0.9512908340522592,0.944140400024398,0.9418813176610192,0.9381454493641235,No
0.37501065445302006,0.41881299176027875,0.4717120358364688,0.5008448543542876,0.4947271185353297,0.44186038946883066,0.3947361728406962,0.37028542874773596,0.38649707438454595,0.4263929269894511,0.4671469339173657,0.517232585383163,0.5461233043708933,0.540541756873508,0.4814403691473268,0.41066747400270964,0.3399229087752027,0.2705868262257525,0.19908968184067866,0.13168577343430887,0.09797688333147236,0.14309414879025373,0.21387994226299467,0.2851196719300677,0.3569814585087614,0.428288114772184,0.4977200199895202,0.5440049825236981,0.5620759533210842,0.5613553644434606,0.5464502756901566,0.5164128043292666,0.48385245102075203,0.47110602352980835,0.49900963549660804,0.5224409562876049,0.530030661379201,0.5255516791507739,0.5266891944399845,0.5233216470350632,0.5057100997238204,0.4960110060162344,0.50054261385187,0.49823895488836656,0.4560024946997778,0.39098363646597134,0.32245743380801195,0.24961192620422246,0.1746273890312504,0.10628940497516803,0.06110767993901123,0.09757686955642486,0.16828325091513907,0.23807868610199012,0.3099208838934384,0.37789556007820835,0.43737323671599904,0.4488027398076533,0.4282522089610592,0.43836947906599244,0.4284426434930635,0.3975929713934421,0.3542129866419943,0.33278946088116945,0.3482579190210502,0.3733708880695392,0.42157025898506384,0.49119606422676587,0.5628112499310658,0.6328384519651162,0.7003311165596742,0.7644826814270265,0.8207907741418206,0.8692858776499983,0.8955299457955452,0.9067300650326005,0.902410511117121,0.8948677876663611,0.8940879342420645,0.880356789440961,0.8265532810852754,0.7596721772802879,0.6913958065155479,0.6214818946839691,0.5497843109882494,0.48062610409634665,0.42936132784069403,0.4606303660556774,0.5306646793625347,0.6001750963229926,0.6742545965120403,0.7448013236909188,0.8156213329713238,0.8712075884274098,0.8879071795293723,0.9152112522193427,0.9560431678973964,0.9701729609327676,0.9677200307923846,0.9268932215756764,0.8768160611220983,0.8460549176870891,0.8622375789956997,0.9036951174001495,0.9351779707343102,0.9602404628968129,0.9362067151226372,0.865723532721447,0.7961086732760554,0.7233459683318433,0.6542372706706348,0.5864595981775371,0.5186977622602214,0.45374813268886527,0.4104735065724108,0.39031878021622,0.3811142183937417,0.3803388406531556,0.39886022316750247,0.42194861322659083,0.4328265391217969,0.372591654631935,0.304894682794294,0.2364551526730061,0.16672750436335093,0.09438925642945106,0.02715991506545501,0.0,0.051510991553321395,0.12106256266178272,0.1938826171945751,0.2698321975475222,0.3422920489917032,0.4063391145022004,0.45764488988472096,0.4815505729267504,0.4835181597193745,0.4742444718565313,0.445458691610624,0.41516239584969394,0.41463164729919666,0.4465428980313497,0.4806841709583216,0.47124421302244546,0.4445894763114322,0.457106154654046,0.4891495036966027,0.5092283385545007,0.5121733515841635,0.5090355972018017,0.49278412871177424,0.44987825795004976,0.3882948720718611,0.3204200865155835,0.25110465258073034,0.1836347851797997,0.19790086957943132,0.26482137309195997,0.333138953845475,0.400274673952306,0.4582972971611212,0.4683156895657967,0.4353961955478598,0.4179059189930159,0.41399019339830456,0.4216099428717748,0.45162302939213794,0.5077465417092526,0.570900562841528,0.637106097615912,0.7094625483175105,0.7854311601204598,0.8592131092656061,0.9288073600357074,0.9917014580343204,0.999932437524039,0.9750405522879906,0.9445264372753004,0.910428386277008,0.8762912237993454,0.8988162571914209,0.9520891650247485,0.9902678260019973,1.0,0.9894527425138899,0.9561587051195242,0.9207931494426211,0.9035247478804227,0.8547167988349624,0.783632820715443,0.7077506763727988,0.647415749347692,0.6766635930004246,0.7450882145045623,0.8135706387572121,0.87697850551516,0.9152021169881375,0.9235745365124335,0.9262681490295792,0.9352700884578926,0.9335611452439092,0.9233085365019398,0.8914133625774898,0.8447120168362403,0.7925465905423172,0.7288803473147403,0.6620313236270949,0.5890251256799646,0.5137249242239952,0.44478913447247703,0.39457695630969414,0.3724273623101726,0.37295535717247796,0.4119817982597216,0.44878634262387473,0.473043249102268,0.46891645150550176,0.46883928055936375,0.48211001326199354,0.4629028024922468,0.4073064680154439,0.33910683640330697,0.2769961364090747,0.2951298344435094,0.363676311184872,0.43136253058695173,0.4964415794202488,0.5296643844147773,0.5291275481895104,0.5272344911217131,0.5448081764185704,0.5500687465813408,0.551673226149823,0.5592512754169034,0.5585572097885412,0.5358719202695077,0.5178880942925148,0.5304265378036941,0.5618408659132172,0.5827008763227133,0.588193230664213,0.5915029622870178,0.5741300618894418,0.526851198883461,0.46617898037393934,0.3999121070065923,0.38072152386385794,0.4397257795534997,0.5055852723002525,0.5618641962618205,0.5781309471225753,0.56614606017983,0.5476632642265886,0.5387730837479385,0.5275595471701673,No
0.7578169041804299,0.7645791669513924,0.7790798674005366,0.7889367595474481,0.7983534183127516,0.8150965514003536,0.8225948702112247,0.808870550915854,0.798853040108116,0.826457476936133,0.8612767084210973,0.8764180009736597,0.8744618948863867,0.8190778150829301,0.7467194334980309,0.6788651599579292,0.6065535566660012,0.5321297668806251,0.45867388641287343,0.39111541300877595,0.3181288255811423,0.2446675182864162,0.18144576715759997,0.17484387149390324,0.2386770579029156,0.30853773328624245,0.3783246319913338,0.4519645918058155,0.5191735082900859,0.5805330891895473,0.6455898374479034,0.7124355390399593,0.7757222688011502,0.8344041516847736,0.8866288898596086,0.9050363528007099,0.8984009061946068,0.8667557288501699,0.8292573444620039,0.7885019331817213,0.7511631154039662,0.753108939242856,0.7947325549842912,0.8474984020803573,0.8962953222892738,0.9345207456517866,0.9482039210288333,0.9406781484519993,0.9435397496243194,0.9555321281776175,0.9638869492768556,0.9702945942683199,0.960460196592898,0.9307896933883599,0.9181960582776247,0.9350447699362945,0.9349046399220529,0.9117615004428836,0.8478366839045499,0.7788058769381339,0.7046275100748562,0.6338362427259112,0.5648040934636722,0.490579342411974,0.4168863197461663,0.34919835108001873,0.27659542126774683,0.2052744618154534,0.1649768842156102,0.2070244611094092,0.2735503114013389,0.33448455362037,0.40172975634366903,0.4754931393138375,0.5460446531888776,0.6147939424481019,0.6821283293316982,0.7451906624755875,0.7988964366613303,0.8239853600629397,0.8034526200647185,0.7709854226025472,0.7359180525501277,0.6893298637439234,0.6400684018172005,0.5921166537689428,0.5476239933386091,0.5329644560382594,0.5651628199197951,0.613293974548281,0.6635945408657968,0.6999405968967629,0.703373175689346,0.6925132573848176,0.6854813612236634,0.6867025349604168,0.6883469767923796,0.6903060628625808,0.6783944043412673,0.655288704492702,0.6536405670334251,0.6813876906764702,0.7035345801004014,0.7094599669194526,0.6631681110710526,0.5962244972657686,0.5232483625012285,0.4503305357718459,0.38275828140263046,0.3092501664357228,0.23482713016381496,0.16259480346676858,0.09470056120771397,0.02357429214807194,0.0,0.053679474619293455,0.12597577604418897,0.19603555391398442,0.2657413849420023,0.3394099299077378,0.40716869859704374,0.47794012502084593,0.5429283437969761,0.6036356843139967,0.6586161838772133,0.7008000612443666,0.713959004541737,0.7005167120513363,0.6690998181021961,0.624228184654902,0.5791559005155771,0.5445374006337227,0.5460262382247822,0.5899213521853965,0.6446441805338035,0.6970373894726185,0.7394618130428359,0.7673213014238593,0.7752086088249499,0.7813266390898213,0.8000730307583208,0.8149807351679041,0.8378874968714438,0.8326559404307454,0.815668149118489,0.8046060095502827,0.8030171407561368,0.7890364680883808,0.7577109884352489,0.7134615904907995,0.6607798172460377,0.6090893255107863,0.5765563990383009,0.6039327052244137,0.650279199971405,0.6919153268566904,0.7245420139749028,0.7406962113826492,0.7376679367696659,0.7117626365727858,0.6658049400998809,0.6102379073981481,0.5477114891363344,0.4836100393363427,0.46351576301840436,0.5222037408413092,0.5954427197044934,0.6636635902491861,0.7298979091441933,0.7704406029510675,0.7484993834342364,0.7274483762751576,0.7074780788091901,0.6835413249852815,0.7010733485528742,0.7165950824405463,0.7196364065539604,0.7211966326711727,0.7189242719993842,0.7151506450654586,0.717441642376575,0.7303443406389352,0.7330799391863654,0.7121122455172106,0.6665299372858002,0.6175188317368718,0.5750441245078421,0.5839465323085289,0.6315514598530119,0.6786952143661584,0.7264422248237521,0.7691769403161013,0.8030146100143665,0.8348481941482933,0.8545500749701362,0.8480461797624577,0.8051564851218949,0.7496285810490593,0.6867028287298267,0.619714757841044,0.6080619239114566,0.6744171975200199,0.7419470939722035,0.8152675272956207,0.8846252936364629,0.9474781303726052,0.9762584305211262,0.9677363757303432,0.9663877976488213,0.9548254377329466,0.9714731354907746,0.9957153116087432,1.0,0.9946855917112378,0.9919930263228061,0.9789640409800406,0.9722453680485785,0.9804737898556009,0.9749317620552838,0.943632887154934,0.9010948247848574,0.8482243784681267,0.8009462007884458,0.7857509621638192,0.8245374215055497,0.8653362123587913,0.9012310676714665,0.9300311818095621,0.937042810897539,0.9277130047347859,0.8899087166067263,0.8379522470956506,0.7791308202174696,0.7158299711059231,0.6485400458236565,0.5787827562039785,0.5679352835918976,0.6346516831356637,0.7090692163008749,0.7834863738208158,0.8552975067572541,0.9203317423165467,0.9542519437608519,0.9267908687173463,0.900662005906683,0.8786454231692791,0.8415074771831581,0.8343233978255316,0.8512171461130662,0.845693878199919,0.8315483061101232,0.8194447848458382,0.8064972394728462,0.7946329746853797,0.7919596851647157,No
0.16329992342131616,0.204488082508679,0.29585502882824777,0.381646877181963,0.3575072334224938,0.24671213552358662,0.16631600348473485,0.17785757570057692,0.2669799325688169,0.38509281714519483,0.47935052675334333,0.5861426943538595,0.6949568026378161,0.7761469725658263,0.8129293726365443,0.8086171106683557,0.7663512308615021,0.7241187091194892,0.6852612609768935,0.6366089726846451,0.5762460907337221,0.5122764393451886,0.442319984804294,0.36831029320510655,0.32971832923495414,0.36794609475169837,0.4484167326462969,0.5256945146614735,0.6016293481492578,0.6630441173892931,0.7060942124773293,0.7227573825703195,0.7093844773867746,0.7034422173227899,0.6894309693995759,0.6904666021116204,0.7049406460106069,0.7072442530387248,0.708634808047715,0.7212255021730614,0.6998779318974409,0.6647596953744275,0.6540624180830172,0.6800543628472195,0.7306907162772385,0.7635805055925546,0.7681621324687815,0.7254109902804391,0.6127452843416621,0.4994760954791708,0.38705682540354447,0.26864240401823913,0.16412272358317193,0.10799399345458838,0.18400368466131356,0.2945611975442124,0.4045860056894188,0.5126256795079858,0.6208518425572991,0.689389245396379,0.7218283947302822,0.7221573755033441,0.6920810858129194,0.6606115939973249,0.6136050297967466,0.5610641407367312,0.5025843767234162,0.4327406848843447,0.36209201989142104,0.31727527265011624,0.342865605488309,0.41636210478738267,0.4969507811547418,0.5723090390507033,0.640565999758584,0.6831705262065242,0.6807082070844892,0.6693236477670665,0.6645385697683239,0.6508430886178282,0.6526236934849536,0.6625066015885448,0.6600443740540722,0.6687034466451527,0.6638744317564012,0.642443909225809,0.6060129666555052,0.5687940003634031,0.5749446490170129,0.6210813691113835,0.6775576412777382,0.6883616755751238,0.6883007238094065,0.6075254694619483,0.49970610872999055,0.3816188962984821,0.26182856963274315,0.15407370935139753,0.03977814218237796,0.0,0.08194107132204964,0.18847613053721135,0.2984075603004266,0.408854677748105,0.5163963714197575,0.616252672273494,0.6702566154092002,0.7033438344508482,0.7070694280113665,0.6973811866087378,0.6703188248279548,0.6192194116896781,0.5626126172433614,0.49363065085376423,0.4229901544140455,0.3676136852421097,0.37259381638906053,0.44423091875368836,0.5280007677795195,0.6091892512825567,0.6916047948398036,0.7584907231947495,0.8008654778084803,0.811268315404134,0.7809856958351071,0.7501876959890237,0.7201347453367797,0.6958181817916431,0.6891848551912023,0.7027173894451559,0.7100638762515135,0.7425152921922935,0.7531456982276863,0.7532209964750769,0.7567033107895207,0.7779806849733584,0.8071334374461325,0.8403273087063714,0.8663234003907077,0.8585043130096279,0.8289861389418207,0.7687349335009075,0.7002673835132929,0.6163563478041922,0.5354249444464716,0.45681375507434696,0.4737626274933313,0.5382270357631671,0.6063562540085918,0.6664295543383489,0.7200597675815672,0.7487965956287215,0.7636846053149693,0.7626816022946801,0.76311924082255,0.7365804929232729,0.6994521939814429,0.6256989288251171,0.5241259681888808,0.4095844313573176,0.3543853945075548,0.45386950038097096,0.5710988872474325,0.6789761520054105,0.7796775424745737,0.8170346366900869,0.7643967278547477,0.7349311496596478,0.7194840645830176,0.6707618291750537,0.6345735187078412,0.6559800101102726,0.6972826083323644,0.7144569782509986,0.714907453101346,0.7149075119218531,0.7146247402958754,0.7068277319228078,0.7130506027440666,0.7232056741579727,0.7391788334788338,0.7385375037797619,0.737129496281312,0.7289164316415877,0.6848754217095792,0.621808017034823,0.548966385455381,0.46520071402305785,0.3929145884726184,0.41557729551390743,0.4833871443732236,0.5545223934242731,0.6132368816097014,0.6656943501281614,0.7111138262069261,0.7432908555674493,0.7714787178640754,0.7862174104810307,0.7838283785818612,0.7566326357072715,0.7074302950222897,0.5977357934211294,0.4874326088990566,0.38364069415000124,0.4093467367866346,0.5223952974979587,0.6323326707225361,0.7483670867196737,0.8543395403216683,0.9144917540544171,0.8684588823031252,0.8257497896976038,0.808116223213565,0.7647407669594228,0.7182719818392553,0.7151879936864733,0.7500832840058971,0.7834172807420674,0.7763918714095706,0.7673841451559196,0.7662143594135911,0.7566068256686882,0.7420120221757571,0.7456615037117187,0.7577431283372498,0.7713828683194963,0.7723143394647929,0.7653739274327087,0.7288105927463726,0.6726806480529994,0.606998063601655,0.525220774883143,0.4414127143301849,0.4139548876816397,0.4705095312930081,0.5419909657366642,0.6065908463290932,0.6669436137619629,0.7209316541048065,0.7606684792989329,0.800078926352426,0.8477249028554743,0.8819602802327338,0.8824372558113125,0.8635433371052521,0.8362800014891723,0.7405204739371882,0.6340183003235129,0.577547146267444,0.6619713612544236,0.7805643809838698,0.8879517755531943,0.987875121484239,1.0000000000000004,0.9375464156191198,No
0.0,0.07718500284110164,0.1696180101752387,0.26610787582553286,0.3573463241502557,0.4537650136692828,0.5307764654264164,0.5717672435666166,0.6236240459094429,0.6698813442425133,0.758125630965957,0.8164745033175573,0.8249284701164092,0.8204416523907483,0.800861378596077,0.7883664145487175,0.7683492053027847,0.7445165017113147,0.7586889484784574,0.7901416213404495,0.8021924047981188,0.7814652609727522,0.7980133046822955,0.8023670696331258,0.7994867604190374,0.7994736723103597,0.7994736723103597,0.7992560839235834,0.7907076267810322,0.7894081967114679,0.7930187044831456,0.7758609084651331,0.7450386806863425,0.7208970849817247,0.7267818155817065,0.7671256796417634,0.7955652496399548,0.8133988890885746,0.8083212934481541,0.7149574214361127,0.6217271388494465,0.5236281675587042,0.42581787332714294,0.33232729589644316,0.22938600065327241,0.13428620453006745,0.05227422432537199,0.051372481727413266,0.1293434483253657,0.22248499048530146,0.31622196515037526,0.41150336141861477,0.5071083848695461,0.6104559649008614,0.7094902589527226,0.7843809777269337,0.8140415925587554,0.8073892380788683,0.7900668375838511,0.7676749874518722,0.7501290524521917,0.7394553369429744,0.7555287255165011,0.7791229086254479,0.7906588916449193,0.7828584585151468,0.7698468665009925,0.7679488388959377,0.7803661412253979,0.7950454429532656,0.7865386207642175,0.7801812291730288,0.7751314899068711,0.7830372723975869,0.7785766840281161,0.7494304955979172,0.7242237267527893,0.7287621797573105,0.7584920168112936,0.7960116446101133,0.8030983851200855,0.8274272543243373,0.8434780809432372,0.7658910188580212,0.6754200612573449,0.5757811982926144,0.4722672227273863,0.3688327856860276,0.27223407843044933,0.1801189103093126,0.11877741876380998,0.15789326195818143,0.24793137182782798,0.3392933928684787,0.43508695842884215,0.5288958367001801,0.621817913272344,0.7150551365593851,0.7940187723950674,0.8096116613404578,0.7983545692405931,0.7847859885226991,0.7692047363301682,0.7507501411910784,0.742843618099263,0.7603165147535185,0.7823209437100735,0.7878596994573588,0.7738968525755898,0.7688008125280952,0.781915587840555,0.7960881147259662,0.7993570082610999,0.7917960022776591,0.773042235178969,0.7671923903580109,0.7666358417756332,0.7544123789617969,0.7204593992508563,0.6982371391708893,0.718121120300502,0.7476723617970054,0.7726153538489435,0.784720916597005,0.7266264991847793,0.6366500094207832,0.5446921717695408,0.4586766894260621,0.38007037264193455,0.2879912178014856,0.19122562253624764,0.15668105595962656,0.22849945595430832,0.32466632184278454,0.42807715324876794,0.530768874448758,0.6227929941875878,0.7159760900284202,0.8068235408913855,0.8951287404729769,0.9546473969956786,0.9248730527598061,0.8505035028614483,0.818515524973682,0.8091337501364881,0.7716304445792881,0.7747901875118988,0.799831014304897,0.8283279410195918,0.8113150767994957,0.8131022206343954,0.8240892302290717,0.8366738061845802,0.845785111693313,0.8469413189773136,0.8303175003301035,0.8157838177423065,0.8156057770739107,0.8318844997622317,0.8342805106208568,0.8213900629417914,0.8002991788827627,0.7991932338572316,0.8113162404042851,0.8259039927557934,0.8421593514422927,0.8507806322840543,0.8537458405361198,0.8320624778357062,0.7612405836482297,0.6695184207455993,0.5784283362133515,0.4820328263769458,0.3979796053044051,0.4171966013025221,0.516119898448252,0.6074170287066121,0.7041566914195445,0.7947446284126181,0.8853769119821004,0.9782541001444489,1.0,0.9331114999235308,0.8655398389165234,0.8442238931810788,0.8185984637426515,0.780876409847731,0.7876833618832815,0.8194170285775484,0.8305264981877833,0.8281059036983303,0.8224285321320122,0.8229650296848474,0.8344172672771331,0.8372609492307492,0.8215130903691508,0.8073441556792438,0.8176800128182817,0.8301040542347486,0.8347459194784159,0.820548876038778,0.8003836886469595,0.7953407718941317,0.8158383022183386,0.8288639108563145,0.8456212752011147,0.8542480850151106,0.8513298717220179,0.8101923272378664,0.731904090787618,0.641124381636307,0.5454524696573197,0.4520876142346566,0.3592952845166506,0.3577615391339828,0.4523317853372011,0.5441410229291188,0.6416887452485995,0.7340662360980295,0.8262270962726483,0.9192840565632152,0.9925328829867541,0.9779873978079849,0.9036546781340866,0.8455984821759892,0.8321884272635702,0.7944610961429772,0.7775458012552923,0.7976182795971685,0.8315459863667618,0.8382372296876617,0.8382748572333374,0.83924558127572,0.8505140135290463,0.8443798237727314,0.8462071438721113,0.8491207387856874,0.8421062056689497,0.8526456247175944,0.8519414982554467,0.8601110775885092,0.843331162993767,0.8127228071034986,0.8124625356087294,0.8389340254672679,0.8538449426162642,0.8722313784859508,0.8885766951576701,0.9054134479785998,0.8815710633267355,0.8253598519813754,0.7364598303398981,0.643887292866713,0.5462016396699738,0.47072369815621906,No
0.8547241931626605,0.8593511974703508,0.8401425866386133,0.8311070723830117,0.8628284507847553,0.8904506805541806,0.9011049425821117,0.8566909827197419,0.7837587454076572,0.7045040698821664,0.6248676321285475,0.5454094191588007,0.47066788542473137,0.39478125838438316,0.3152160414199996,0.23562065255830966,0.15911187832817353,0.08503390505218678,0.017558458111173625,0.02847032525213611,0.09703572544244266,0.17559870369007913,0.2527864100162651,0.32643512139264785,0.4056316906928462,0.4852668580285483,0.5641642678451487,0.6374071788124062,0.7152910072607684,0.7942229223976404,0.8674738995434238,0.9354159762077706,0.9310285175236105,0.8971022624690869,0.8754620821056137,0.8520479771365935,0.8209361228484379,0.7890290007101267,0.776066563168535,0.7969412514120616,0.8267139732726297,0.8280301892358074,0.8198404987958842,0.8284741780183525,0.8408954497007922,0.8340701247742842,0.8201685803468678,0.8363109539459838,0.871737107184975,0.8877164680023503,0.8570017280753887,0.7851244633704143,0.7120944560099568,0.6339885565838171,0.5568835740273158,0.4831674820717332,0.4039567241815486,0.32436243160751765,0.24787283111316027,0.17367007816145075,0.09431444011806478,0.018493542681569552,0.0,0.06095632355582792,0.1385947835544621,0.21167059251966458,0.2902082565773495,0.36984192775367875,0.44920973572928,0.5232275365446536,0.5915561476584122,0.6619999225312195,0.7397595929512567,0.8129025248402592,0.888431714128488,0.9345365669112443,0.9077493256667427,0.8798248418646105,0.8532808986445336,0.8249984500343485,0.7960681046875623,0.7712776063654451,0.7723014642965974,0.8069489266968092,0.8334584198699669,0.8389107226300104,0.8413169798453749,0.8493107270770691,0.8582043687806472,0.8490771576166004,0.8296373590288687,0.8391040343053892,0.863579416418227,0.8836565692962343,0.8687139577837936,0.8032092559179734,0.7304722792854915,0.6524291967976411,0.5760422426443997,0.5017551673501289,0.42237491649990744,0.34281846207055466,0.2670865235456171,0.19220401044549984,0.11279879489886657,0.040097211387823184,0.025108283288750033,0.08675384500723127,0.16345051191293958,0.23707880734352293,0.31626285998887294,0.3958991696512567,0.4755358241051958,0.5551724785591342,0.6348081384142167,0.7137636616878072,0.7870547814480892,0.8625123509755391,0.916358416917643,0.8999535820038206,0.8750690390374133,0.8567045429342232,0.8324273406301278,0.7996155421304539,0.7770420975850635,0.7852024925719469,0.8181689329174532,0.8468890945655675,0.8440933937507363,0.8391886180618165,0.8467846658549097,0.8530689453794341,0.8551932888034549,0.8392469406268709,0.8451309437072679,0.8732634952310462,0.8944595351755181,0.8858705722427017,0.821886787111766,0.7490317310727267,0.681205370128691,0.6976561495841987,0.7740187046173687,0.8481533299100702,0.9223875226295809,0.9558786843036599,0.9285366081195682,0.912255957632114,0.8827934021364653,0.8687173770393067,0.8803341613064027,0.885394297678033,0.8774726407824064,0.8702716270166605,0.8656841679997599,0.8731822979442984,0.8715739703840254,0.8432477901812186,0.8113141644380834,0.812617662865113,0.8431277982832351,0.8722527022201264,0.8914108598993461,0.9124213991068878,0.9519763359653987,0.9847771787365712,0.9397090330776278,0.86756829744212,0.7930901235267541,0.717987926101621,0.6429742989600408,0.6370956568243812,0.708208568515135,0.782557557766088,0.8566964944896197,0.9245386543887774,0.9419856788926707,0.9122669437938579,0.8983638399151509,0.8701712875271338,0.8623311660026484,0.8834588153265975,0.8855108866206131,0.8795225327040298,0.8657682176093865,0.8635996737922412,0.8632635681762032,0.8479126655513255,0.8119989741050909,0.7943451168437913,0.8168739939451998,0.8451515578991614,0.8758107911372192,0.9008578166112592,0.9298741951304151,0.9725923952363634,0.991095464689698,0.9368346734964871,0.8638117908752677,0.7904188862890432,0.713287878609819,0.635830598805824,0.5623630656401405,0.483279469703377,0.40510796036937824,0.3778407642268039,0.4451326630969584,0.5244419044784184,0.5986203241949918,0.6751385906031794,0.7547347503300329,0.8339460375441975,0.9066799171293612,0.9564109729155931,0.9324883527875455,0.9084360529013483,0.8845835231714066,0.8527829737675771,0.8598308933420425,0.8684465665947584,0.8619086149790106,0.850439662806379,0.8562177814835609,0.8585487886118889,0.8478925202000741,0.8162740163329792,0.8109270306986701,0.8385947954459191,0.8723054024062898,0.895832451156029,0.9172744543779966,0.9514660161809109,0.9981826831907309,0.9999999999999999,0.9380028125472141,0.8663294833227683,0.7905737052339309,0.7133774143498034,0.6397790302541703,0.5607279922926139,0.4991634156850716,0.5344329974491139,0.6081336423252385,0.6866664493189895,0.759822808660204,0.8366462675467202,0.9087252558899918,0.962202359411174,0.9439758614849602,0.9186063198326048,0.8966465382555483,0.8652662877713054,0.8746877148142583,0.8914738553189357,0.8831093582025079,No
0.45913060488077284,0.4965788813319889,0.5569070728666106,0.5269336773177242,0.44652512895595153,0.3590775983524137,0.27821768815279113,0.22382370061170165,0.2629469363768271,0.3478491024883905,0.428122674911674,0.49727368217376156,0.5845370348556229,0.6757991144337254,0.7667616220431608,0.8502224131065765,0.9119643881005794,0.8818056719260094,0.8501705752306914,0.8390418113497384,0.8381225613954069,0.8240043886314017,0.7972954354311881,0.7577132560999811,0.7113448376545972,0.6694959287254358,0.6480190985637764,0.6747316313308107,0.7183359881732945,0.7595105947749263,0.7836897666117202,0.778758936164536,0.7664102370515455,0.7584187290226265,0.7709237770888708,0.7793990165324183,0.7839600602467294,0.7944485409972719,0.7942240576442527,0.8003702965885253,0.8054618084508802,0.7922602125204112,0.7462998809728316,0.6891625207365895,0.6593046865267127,0.6810256411958597,0.6895621286220479,0.6654681189607639,0.5928907206965974,0.503815901779797,0.4215904634351777,0.3329443065828712,0.24306852667364898,0.16116847144529367,0.07359409218506019,0.001718239712040992,0.0,0.0749440385523723,0.15853579691089004,0.24944523042865985,0.33638343180783115,0.4198705595024872,0.510791412978729,0.6020690641301445,0.6929953959473512,0.7740458642727486,0.797861286453438,0.7583369460397926,0.7542813194302354,0.7628923521570368,0.7671380197257358,0.753065172968848,0.7336708647073356,0.6961003055698318,0.6462179585227652,0.6112845770043156,0.6099190050748897,0.6496451008283439,0.6949828195069088,0.7330401098726962,0.7538925684921489,0.7553291643628377,0.7410635763207711,0.7420660113097175,0.7544277582742609,0.7628737350872505,0.7575518779548354,0.749717884657076,0.740225849923644,0.7395336994424202,0.7230653540057213,0.7008754650793256,0.7041521492510561,0.7349777941975879,0.7395980221671432,0.7173443400529118,0.6375097805760321,0.552184643901156,0.4672897397353408,0.37873336285265125,0.2965225072361648,0.20684960449241352,0.12443401476023208,0.04221434929452528,0.013191179120550345,0.07503393592017238,0.1621332386880523,0.24459558995731823,0.3349369006262297,0.41920830283406363,0.5052676997128369,0.5964656080182205,0.6870866000298819,0.7402982466907488,0.7232095352197732,0.7642044344870449,0.8253449030955071,0.8726772442659048,0.8944837768491283,0.8952169605249263,0.867486294391949,0.8304330442303351,0.7854004356732065,0.7377076584680391,0.7015195000294565,0.7028956637960078,0.7386810258231438,0.7781011169818259,0.7994595840779808,0.7997426480147922,0.7874986571780789,0.7840267765144149,0.7905973919694218,0.8240090125647166,0.8346853738930249,0.8436493083045726,0.8518959314360606,0.8494087814104114,0.8276315992121304,0.7870645806320398,0.7557940628030759,0.7729495050862241,0.814397079067041,0.8629334985663184,0.9092066521719926,0.9439063780010968,0.9630376241197021,0.9609194831991488,0.9373626195152895,0.8986929495830496,0.8403873131624118,0.8186298253298827,0.8548995334045135,0.8137233061192277,0.7352254417791726,0.6533564508708163,0.5631507503624122,0.4782456156487469,0.392850573773017,0.30258443876562335,0.2614217301586359,0.3335625370156561,0.4154440997935056,0.5047065926188989,0.5916679444293775,0.6749504197466705,0.7562909818825618,0.8047467024011268,0.7989640840131949,0.7907671073192688,0.7729079942146013,0.750774733138309,0.7623687991848702,0.7836084804440895,0.7911207877485404,0.7884241848181244,0.7930421749023444,0.8003937175240186,0.804512931344183,0.7936742567360584,0.7826931894327425,0.7896556771708045,0.8009243793756906,0.8011263520074543,0.7808907093459205,0.743249911089161,0.7013426136479799,0.6602900989385541,0.6636164286051076,0.7030407042673832,0.751185390296691,0.7860823279991465,0.8061430039367852,0.8112476420908785,0.8040202108669652,0.8031749692659571,0.8170190516724629,0.8728384692806768,0.9037814701283233,0.8474448017030869,0.7664921119822918,0.6812135521382916,0.599350916765079,0.5102736689686067,0.42824397049656837,0.37122559636810415,0.43147384990544424,0.5164917354326086,0.6006833704897321,0.6825831442841725,0.7615259478024181,0.7910618068334712,0.7487213621097908,0.7293609253662097,0.7174414644821492,0.7466026786449258,0.8046630336145988,0.8409524684781498,0.8486318412224274,0.8438101517424887,0.841956164267474,0.8362899485445232,0.8358250510806196,0.8294889869523296,0.8315535855736611,0.8153342420636629,0.8119812209597024,0.8223347553876663,0.8301905848154596,0.8195172624123779,0.7918150342160741,0.7498694108244943,0.7112116699121818,0.7144573152945162,0.7595687158633431,0.8005755423510847,0.8419689343040071,0.8691840050796644,0.8771499827428668,0.8833422198484162,0.8896294163664553,0.9024293193212989,0.9415700717475404,1.0,0.9881735534540517,0.914933676017867,0.8329800703070775,0.7440645955941725,0.664110981919869,0.6363160774094614,0.7091055518471097,0.7914796027957673,0.8744159710500838,0.9301510062108118,0.91023394495349,No
0.7082777085535237,0.713608097814646,0.7372700484143633,0.7258614842480755,0.6948922003861879,0.6717614532462659,0.6764150244868219,0.7154333056967048,0.753768104563346,0.7285332670740114,0.6440016872707877,0.5374675355666128,0.42737350047638634,0.3107875912552074,0.2006079652164403,0.09423850581503279,0.09046509083866638,0.18579407271212922,0.30397922902871244,0.4267300420473563,0.541838863633541,0.6514770856991476,0.7587407208296462,0.8241126102206335,0.7733040296346285,0.7156902392536044,0.6789266289952067,0.6503107658785896,0.6330556014622126,0.5863065220637611,0.5276867613481047,0.47463927519953897,0.46505349139897767,0.5195083352467527,0.5923679214103093,0.6634319491701577,0.7267666889597306,0.7462970178752681,0.7478112401469739,0.7404288744347145,0.721739815897271,0.7037659173956667,0.7027746893947624,0.7091803089010793,0.7243657313008005,0.7355225019686542,0.7172945432775184,0.6879840796747718,0.6762553477535995,0.7148975676858669,0.7638593278953629,0.7580487789735102,0.704856006084086,0.6104703667225833,0.5037450217419304,0.38778297660964123,0.27762871828568825,0.15747173223143518,0.06642175098111469,0.0902891485112094,0.18550339004543215,0.284163984930617,0.3961976167435721,0.5056836986343414,0.6205453234639586,0.7290477744269968,0.8347439332954227,0.8425809517570877,0.765850493437708,0.7248568196592378,0.7001471072928114,0.6707070969074622,0.6431488363237063,0.584647167135087,0.5313459258089832,0.4856791909588458,0.4690158641284379,0.5214030913879242,0.5950226777451513,0.6733351653603581,0.7202800366607578,0.7375470476043184,0.737962383356928,0.7184250856598369,0.7049400555787169,0.703416855982828,0.6974923316072585,0.7049923320042302,0.7193156251042523,0.7179594883430749,0.6900298810447092,0.6690031826816036,0.6707829510340848,0.6929371743219597,0.7418387274579961,0.7649091425260761,0.704778989256988,0.6048644073861924,0.49210989353536316,0.384475103523084,0.2919289148103248,0.19374657376592497,0.07311744736882186,0.0,0.06470795887710601,0.17793929409688314,0.29761065261497777,0.4062504648140579,0.5201210794431579,0.6307078635201613,0.7392535481602667,0.8255687524639854,0.7740498195931385,0.7013134217805255,0.679848408478914,0.6641087149854652,0.6351140690488841,0.5848847095281688,0.527377931413497,0.4640794178140366,0.42513500676284677,0.4553833654524717,0.5286413914503334,0.6074015533295221,0.6758194526336303,0.7289596640198344,0.7471605831352721,0.7461462149764122,0.734260409246509,0.7221493066855245,0.7216248689398852,0.7227596262986538,0.7391603874928321,0.7475698229155601,0.754539017947824,0.7943549986629277,0.8038635614373772,0.7908645191332395,0.7800657884007984,0.7811717777945528,0.7769399366664009,0.8020981138370655,0.8102748953160765,0.8089451384921,0.7905751078418537,0.7551681947279252,0.6890453166237922,0.6111021196645341,0.5343598560943064,0.4993602994942665,0.5532684418201392,0.6108283827355132,0.6611442645582577,0.7032604362194594,0.7283620472348904,0.7484287149246929,0.7936973014257815,0.8726068787119052,0.9625270842344529,0.9722159905980727,0.8831320207753217,0.7729296493206284,0.660593396684189,0.5489558626382172,0.4656047538574506,0.5254186396816158,0.6387508095111354,0.7457391523418511,0.8108288909336454,0.8213019359048017,0.7909339418761285,0.7413491002979802,0.7305862559673257,0.7514312744847444,0.7703761220646581,0.776300021420592,0.7671536587103587,0.7602527649861601,0.7641189906018946,0.7700093161590473,0.7898895073648506,0.7960711897702577,0.7961071938767295,0.7851730472575977,0.7571557841865255,0.68817433346288,0.6215709062562653,0.5505267599497392,0.5562169106461199,0.6031442621990664,0.6599566724100399,0.7146004278740632,0.7355643759149855,0.7616520987943365,0.7895526882420043,0.8541134560520578,0.9277351144942738,0.9949745829270205,0.9783277543338662,0.884093251614511,0.774719389064451,0.6527021806493369,0.541338292743692,0.5110446273814948,0.6068541368109353,0.7064236301813178,0.7861692598324272,0.8288572059608894,0.8226755892153039,0.7887755443183351,0.7354273775323446,0.7518801910698185,0.7859799434250636,0.7959780198330124,0.7858973509966258,0.7750467452700902,0.7671241251758865,0.7685745457622422,0.7863606264468674,0.8035385177358876,0.809993040198318,0.8091868258474961,0.7795619527053277,0.7146382508475533,0.6482556363194414,0.5769104471128284,0.5218932662738887,0.5574187171327671,0.61424119181678,0.6668180993092547,0.6997066811334491,0.7200933230468003,0.7424948262803537,0.7818981734638983,0.8529625801574992,0.9426775916961563,1.0,0.9480061454111124,0.8341841976988635,0.7241072540768125,0.6160473155792352,0.5150773152768897,0.5351400533646795,0.6212809408445295,0.7081461017556525,0.7822076520009369,0.8138622586007305,0.8036695156347955,0.7611009312712582,0.7332610016633234,0.7567099549554208,0.7814330796399864,0.7856297787536479,0.7793858940945309,0.7709684429493477,No
0.22112297110981238,0.2628951785707323,0.35625747423998,0.4318159335050642,0.368493133179415,0.25602554442262226,0.1400526266138007,0.038843251551826885,0.014654742138143106,0.0960970644434398,0.2071165580383063,0.3008214448489275,0.38878705017954207,0.4936615934262121,0.6000656902694241,0.6863617925253789,0.7476942636708888,0.7783015560470661,0.7752684754225467,0.7523566592550512,0.7210157464723532,0.6619709931139255,0.596182137803003,0.5335570121659066,0.4789551477896432,0.47533420255048675,0.5272135237319575,0.6022484453674171,0.670073419364027,0.7188328955542467,0.7462649937138592,0.7402298966899252,0.7255368460272011,0.7262161240448295,0.7405964481760656,0.753222843476189,0.7608870772204721,0.7610336644552085,0.767414237311848,0.778887436558946,0.75985775629829,0.7275291201208018,0.7085872748977913,0.7208214261046209,0.7630425641373888,0.8058626134615756,0.8262550271933806,0.7726133794121872,0.6669208331680516,0.559390443365535,0.4442933960846993,0.33331647256451546,0.2160794496372569,0.12373465669875472,0.13201266747246754,0.23324543097556827,0.342593024929136,0.4569901173468587,0.5686868973867267,0.6716216177061836,0.7465400909306483,0.8033603378002838,0.8184659042167017,0.7961138624325055,0.7702374099791562,0.7499143046765524,0.6992724921774149,0.6414701272419303,0.580243555518063,0.5359683406601583,0.5386815637363642,0.6027070908144898,0.6794709116320483,0.7510282132120145,0.8022981406932392,0.831834208376026,0.8320364965794407,0.8362883059471078,0.8285535652289795,0.8279390190410996,0.8392872207178375,0.8340594485539623,0.8486178379368816,0.8593377120083612,0.8583922466817624,0.8410105517605251,0.8017243704022396,0.78749838225482,0.7867191141790477,0.8183562406066325,0.8782701643295452,0.8847863144408104,0.8650849385854786,0.7696795074425857,0.6524939187700163,0.5422521005829659,0.4233107261527862,0.31252738463895646,0.1970537580902989,0.08555501119513309,0.0,0.03005353496440266,0.1398464168921656,0.2535957238066757,0.3712288275690834,0.4839748107847126,0.5968941602301809,0.7059818882769973,0.7827442158719409,0.840589732283,0.8524623513392511,0.8282032684281906,0.7917227711228816,0.7561774969435264,0.6997087497436132,0.6339203185617537,0.5669495106528939,0.4944064355256801,0.4588282289506487,0.49459562283529923,0.5610324587986044,0.6334079923006994,0.6980919522901119,0.7675005384986662,0.8144108111919985,0.8057905994957397,0.801212214106529,0.7816617831297776,0.7543634061140936,0.7512646836147474,0.7584261400044578,0.7507363445569193,0.7445615046910117,0.7560316045952651,0.7899053423995972,0.8102205542257992,0.8256235099618077,0.8137172010250917,0.8159038998748742,0.8291200198730362,0.8525636024348415,0.8665303352651663,0.8671669218273634,0.8516675667363973,0.7834656573392502,0.7193125925543882,0.6482205323725125,0.5715687904777504,0.5463839956028966,0.604344731017993,0.6791505448577619,0.7464374457738341,0.7997946504915237,0.8385473643189072,0.8802024937351787,0.9036121250143165,0.9233306867786677,0.905026724757442,0.8505585807031371,0.7860692414452206,0.6824652052289002,0.5582196069919712,0.44781831553078266,0.4512816913951938,0.5593282439137881,0.6739017392442195,0.7863228181322222,0.8941807661116079,0.9915406456557161,1.0,0.9499517330589922,0.9331509400568212,0.8714494773411232,0.8528554006237159,0.8726210433177539,0.9030503513397146,0.9203910819772356,0.9111256276378441,0.913895231004473,0.915514588695955,0.9046811947172708,0.8971112901745895,0.8901292634242113,0.8870638905078523,0.8895907221996531,0.9010208329003992,0.895115666136185,0.8707038549237924,0.8249218516738028,0.7668849307633216,0.69026259846183,0.6089201051631967,0.5957498938750301,0.6445076924293578,0.7112692450966418,0.763340386732144,0.8102675159775683,0.8363746970248189,0.8619497448189084,0.8766622744510539,0.8765813748887727,0.8460011464142623,0.7894367632466666,0.7119174526248648,0.6098518733517402,0.49147543667048543,0.4567602697090849,0.5581833957418998,0.6659014166891963,0.7729936724818312,0.877602861741539,0.9348042351423027,0.89591219919707,0.8668229694306153,0.8311034697572985,0.7843831251748337,0.7725443502432747,0.8018022796597033,0.8263368672584637,0.827477471840357,0.8154184077418685,0.815050059188831,0.8173300629080793,0.816549998739708,0.8031029527140006,0.7881744838347786,0.7794966784088317,0.7882910749394996,0.8040341734238647,0.8090792736980417,0.7754068720335421,0.7336002601381808,0.6718020980046457,0.5943645501577253,0.5318537849650684,0.5471850681810406,0.6142861645355677,0.685084763866735,0.7426079550709468,0.7878527861013462,0.8135874104291174,0.8279798026669418,0.8404059952750687,0.8228404805897229,0.7731116748551718,0.7057867393203598,0.6076855452006904,0.4987810198862279,0.4475564666217897,0.527664615214908,0.6420861621066525,0.7512743109330158,0.8544684326176815,0.907661811061927,0.8657684704601021,No
0.8527011385478046,0.864522364059848,0.8764986859337108,0.8497909474240369,0.7812116942628683,0.7048712320883129,0.628913166468054,0.5504783165257664,0.47374352575937995,0.39323995545722645,0.31712639163870937,0.23682972709844474,0.15829612623909373,0.08229290827414182,0.04020124799795999,0.09133765726902099,0.16957633312952625,0.25046503808762743,0.3266293521339084,0.40682312182868896,0.48845651840102644,0.5684570566704298,0.6447093347901377,0.7257583250916716,0.8071467758261143,0.8838192132589179,0.9371664625437458,0.8989257424532525,0.8396513324346785,0.8067019168194928,0.7774738836371847,0.7376085630704704,0.6914843420752245,0.6369906538827438,0.5848036465185048,0.5698606556893607,0.6156150150187966,0.6755893106644283,0.7348279456669927,0.7889932292708993,0.8124616347812782,0.807634036410155,0.7975202552790158,0.8037521714991368,0.8122855620136195,0.8264427904325776,0.8303598996541998,0.8229505469714905,0.810033640805664,0.834068776173904,0.8479712240309701,0.829803446265235,0.7664133415933697,0.6864961535918747,0.6076382356649158,0.5354860879254949,0.4698554843296707,0.4034002348291368,0.324187917278811,0.24354496038573492,0.16747334797104052,0.08745655642001515,0.016035450563643527,0.008007112525941662,0.07421222393277482,0.14045887127741707,0.21974211449255399,0.3013746323366101,0.3815602417852957,0.4577273015300507,0.5386745498768414,0.6203251836579787,0.7019772657067954,0.7836256009953447,0.8641630409756577,0.9265431924352839,0.9057129278146353,0.8477021773710388,0.8042383786999209,0.7754257310412854,0.7378370269051803,0.6918031757933109,0.634339754033575,0.5845372868290551,0.5598287638637832,0.5972241220503153,0.6572233039917003,0.7225509760792835,0.7767768183292804,0.8127381732429005,0.8163569032430383,0.8048090130044013,0.8045736484653522,0.8180426556396428,0.8295281311283321,0.8339011893784035,0.8373139091685874,0.8312438133373726,0.8313032343785499,0.8570161474699646,0.866217972489315,0.829682814732435,0.7575912095269949,0.6818868628707709,0.604954733152442,0.5265595397971458,0.446593423197821,0.3703552845821867,0.2893913636687544,0.21093428274932613,0.1335607412698001,0.0551996442753081,0.0,0.03456384154919512,0.11430079755944111,0.19595081318629237,0.27760289523510995,0.3591286881257828,0.436859461921994,0.5149828460091079,0.5965450155657547,0.6779168836090522,0.7548228899460282,0.833828418408698,0.9096539391527266,0.9233545130553286,0.8707765639534851,0.8255264345362726,0.7960299471574547,0.7592425651642088,0.7124748766425798,0.6593650398339087,0.6061383318635051,0.574487456309729,0.6006278050524055,0.6624404128906388,0.7258952054434827,0.7810901455679661,0.8184978250729879,0.8353843569877971,0.8483794533926717,0.8251501602019499,0.7789657115160226,0.7171583983690933,0.6546327839869645,0.6083390033472248,0.6328589233827756,0.6869199735343915,0.7381635359950244,0.7821632800437003,0.8168030652954316,0.847904377791114,0.8979792066437168,0.9597538926346706,1.0,0.9575317914109366,0.8777540426271145,0.7985233950320686,0.7217664382842967,0.6404380627039069,0.5592844404843874,0.4829115468871329,0.403133767519407,0.32386185135238343,0.3047756313266121,0.37650320842377827,0.4564800396577592,0.5327164278557243,0.6119739692112106,0.6881360503338031,0.7643629883590405,0.8293161743035417,0.8851362004618933,0.8953412946426317,0.8796468193753434,0.8568280078093639,0.8603098763844909,0.8596406646336844,0.8537695032709022,0.8473560499334359,0.8357541994868803,0.8267634628685344,0.8333270484762293,0.8424757298098374,0.8305549586616757,0.793107363336017,0.7362580422961532,0.6744615781701911,0.6158119548859827,0.597951531827044,0.6416540924416317,0.6960572396844998,0.7457636204394865,0.7849927984916948,0.8147437460179948,0.8543333107035801,0.914330439800615,0.9697798907782144,0.9599496267190194,0.8915187617005201,0.8122035359039551,0.7360719989020629,0.6558228537121688,0.5745067778380034,0.5008176218728168,0.48698139952512254,0.5577420734603856,0.6341876484007035,0.711928543516999,0.7869099578040292,0.8536313085008448,0.8768394195412988,0.8706160094135446,0.8454968839660025,0.843020635853775,0.8510340240309838,0.8489808841445649,0.8430662558775507,0.829980665834343,0.8203214003116753,0.8288703767379125,0.837751779042125,0.8239197257372207,0.7818510317047672,0.7258552874782839,0.6648694429843006,0.6077390719467829,0.614069203958261,0.6677123060276077,0.7213163308495548,0.7644015641515457,0.8027437867008523,0.8301797088559987,0.8690903561032951,0.9310442234023119,0.9921403625692092,0.9837375863808523,0.9134824913121803,0.83628476956371,0.7552288006596807,0.6786639330537382,0.599168873395807,0.5175399107111055,0.43833179201134154,0.42008690459442577,0.4917834168551547,0.5685109494882546,0.6475074688606163,0.7245205996009657,0.800484811576912,0.8692747257758721,0.8990683103868192,0.9000187496223336,0.884575921449324,0.8868769080906419,No
0.8421938774894233,0.8547004748868139,0.8547609334414419,0.8475940175717063,0.861184096425166,0.8855307588783492,0.8964401633802683,0.8838879381842519,0.8857965347212176,0.8833406653116285,0.8234058897407122,0.7795902116784881,0.7963388947997672,0.8414696525993923,0.8614327916626208,0.8408427765383377,0.7621449050849924,0.6789078530595367,0.5945160604785187,0.5055449702826129,0.42086128605350304,0.3377525081599182,0.24883087352673816,0.16135710994965402,0.09762370236278306,0.12376828351934299,0.20647685714710273,0.2955526414978742,0.3838595310041364,0.46523376286544993,0.5521874507900868,0.6385806577803448,0.7201366063119485,0.8013373860023338,0.86500888069503,0.886818270662274,0.8221721773326862,0.7412730230436959,0.6686303245268119,0.6092162824564413,0.5934903946561361,0.5892139333539839,0.5537199167858793,0.5148093074257889,0.497376078960051,0.5271452577378193,0.5783617519797739,0.6255896486014105,0.6706004436833535,0.7067497402704974,0.7182154034565398,0.7167079089735475,0.7272097391841763,0.7440371222084643,0.7554130792566498,0.7597773298602382,0.7667637391790716,0.7484840338787471,0.7327819407255263,0.7674228802715231,0.7878674242105506,0.7537691309163566,0.6729591589604389,0.5889084212098474,0.5053096129284897,0.4164176410741056,0.333370726617195,0.26866430789776574,0.20916060723330965,0.14811848958398022,0.0748097839582531,0.0,0.003640851307395554,0.08285938460218412,0.1719029613633538,0.25994607487182697,0.3411570306200167,0.4284110393817224,0.5121440148628045,0.5957770939386295,0.6768998058990476,0.7345173627987733,0.7243182998445148,0.709677691347941,0.7085184515804008,0.662140810179636,0.6075652655785975,0.552795150731789,0.5010049566777399,0.45030459738755146,0.42978565568066185,0.4647137007467661,0.5219459641565181,0.5744735070727571,0.6085280221250664,0.6068252854848446,0.5778765990577812,0.5541122576776842,0.5464125634762933,0.57272928346663,0.6287425257079597,0.7034752065100123,0.7842206096110813,0.8620013184914517,0.9250472971764481,0.9588582280757143,0.9707702069291595,0.9551098585000539,0.9197603717844922,0.8876019369996959,0.9099372280709543,0.938528759532469,0.9268075787137711,0.8596043757888272,0.774949014902468,0.6927088313987901,0.60446933161806,0.5225784516268357,0.4364317392507626,0.34731368482819724,0.25838117850354125,0.18674042661556745,0.20789423917912986,0.2879770197433691,0.3700294167479101,0.45679581307234884,0.5380602705796864,0.6252085744181686,0.706436758144761,0.7907251639568664,0.8612114425446478,0.8793311115342266,0.8580395591753387,0.8281826648167943,0.7883743535944718,0.7478168855035798,0.700136694058459,0.6449443075815053,0.6138260439529659,0.635041143951611,0.6714380532842388,0.7223607391405973,0.7723082327949642,0.8132680168877899,0.8527029396721835,0.8830295514557207,0.9089712864654638,0.9196654724966904,0.8875365047072636,0.8193485937936422,0.7372413943891489,0.6541003193919879,0.5746471835525975,0.5882510395156688,0.6715661824886916,0.759625786030325,0.8408406397849624,0.9274254636954009,0.9881276017220957,0.9814599463442626,0.9662291918355912,0.9405798545207087,0.954234587101648,0.9878262501026991,1.0,0.9937542555796801,0.9703035396500983,0.9211089213701429,0.8519715330049309,0.7731780407152342,0.6902625912921636,0.6217173170831425,0.5802185595317157,0.5846090216748245,0.6102209733554642,0.6379039948019611,0.6412928526447916,0.6170085854118046,0.5717987339932076,0.5120444734219074,0.46741777726078193,0.4858763178136596,0.5407046854280531,0.5932176283584216,0.6452669521409984,0.7043076883065507,0.7467945035607386,0.7471994857926101,0.7635068169694248,0.7682361905210335,0.7207581708718256,0.6364681108746084,0.5531800884034761,0.4687962072894247,0.39541572985351725,0.42544009242019887,0.5119411477336762,0.5999171593684489,0.681106577140784,0.7669998765733554,0.8366285478320299,0.8420866105762714,0.8184235648421361,0.7914046175561746,0.7689976294970131,0.7939537166634003,0.7983323024781965,0.7860170344894659,0.7826739011666843,0.7713304317942482,0.7567309691305513,0.7530582361057614,0.7592686043635792,0.7413009095091398,0.7035198072758515,0.6610230197099329,0.6136649105882872,0.5636861885210034,0.5391777303151897,0.5714673139291875,0.6064655027240426,0.6305064021737152,0.635284889447006,0.680220377954637,0.7518565779068205,0.8258684233041602,0.8994586268250842,0.9374756896217022,0.904152013979155,0.8432006160739294,0.7632365450861642,0.6820715925494811,0.5940288115598089,0.5226220025743993,0.5579201129475213,0.6452135663493348,0.7273070687960363,0.8125933275827597,0.8923384579764002,0.9344223886951217,0.9087557487530815,0.8812787350254665,0.8345372470454426,0.8491801239831744,0.9084249767969093,0.9293486107549354,0.9229432887674833,0.9384603759727748,0.9307655020194308,0.9172125466991836,0.8927896440865635,0.8808114164562921,0.8827490837967629,0.8897891640342368,0.880152316481486,No
0.686546170648086,0.6565580618368296,0.6207677687735724,0.5538536289390612,0.46096040305083963,0.38673193384105575,0.3389351204220732,0.3327521802980715,0.37299516347941175,0.41851449645952976,0.4081706112455812,0.43221999571252145,0.4935772870239441,0.5727813865077482,0.6382100063318663,0.690750485695401,0.7136556799872358,0.7230450005009288,0.7127118156147987,0.7059017242676753,0.7233844564391234,0.7191566189020164,0.7267052149033797,0.7294310905786243,0.7269876860736784,0.6998736370273637,0.6925802301227761,0.7266836947511119,0.7484976951353428,0.7036695705027027,0.61375874450766,0.5173997715177612,0.41925041888641057,0.314831871492977,0.21186358291234053,0.11958516267102781,0.06799250682555358,0.1302728621766891,0.20990111611348028,0.2917738583849634,0.3770150912718535,0.47781445125485544,0.5721647940895738,0.675072898749667,0.7722989912100802,0.8647452267718372,0.8700138920704734,0.7914682754098756,0.7411522785485201,0.7046403700948589,0.6935525995359788,0.6527521886989727,0.6005787027582763,0.5412957632597586,0.46974156772625064,0.41594498144524006,0.41532366419453326,0.4744990545699104,0.544433815270992,0.6154803776055366,0.6750806385902808,0.7049599302669727,0.7177509591453906,0.7171813839631256,0.709769277749597,0.7118995519068034,0.7180011254168985,0.7249627658113897,0.7210419049148113,0.7276658014226494,0.733095328378101,0.735954106807936,0.7089776315119647,0.6903232909750205,0.7117873938527401,0.7412036815053791,0.7314030355161789,0.6518482487033264,0.5578298325433517,0.4583575189080713,0.36275946253604796,0.2630665574499309,0.1689608562945042,0.11297753101904817,0.1726033571775567,0.2662263796910942,0.3694870976922633,0.4656161300235955,0.5652725510821324,0.668616309371852,0.7627417065993225,0.8351758118761345,0.7975853822997909,0.7480088157423077,0.7208740076291462,0.7130032966070108,0.6767074949688732,0.6251743101717528,0.5630574206563932,0.50068616278818,0.4422692046835801,0.43671430733843963,0.48605153241780896,0.5639414951142474,0.624947411479009,0.6802317230487704,0.7106466303570811,0.7186697215123072,0.7142430616184969,0.7091030739143303,0.7068272057241145,0.7165710907408747,0.727779193504192,0.7203169280598833,0.7261103103484003,0.7383429533920582,0.7388323470157585,0.7173237184506014,0.6785113057101728,0.6992704800757943,0.7278399114098895,0.7169131008042899,0.641062849007511,0.547458441504914,0.4479327111559044,0.3527046086960801,0.24934739559791996,0.15393247249971798,0.0559478834205398,0.0,0.053461077658573775,0.14988992928853584,0.25429490689062106,0.35885347258127176,0.46341118575546614,0.5670420041237161,0.6617585554481449,0.7633377467143305,0.8624304311737865,0.8730291257853355,0.7813751293822733,0.6871198727534906,0.5844797889416207,0.4851579828236481,0.47482005077430567,0.5471291635250248,0.6361861384802403,0.7297064701285174,0.790249269437173,0.7949756814591653,0.771417280481397,0.7396773529574492,0.7560385625460733,0.7840761784853576,0.7861181120476599,0.7922782222011355,0.7740221859710597,0.7703609024408002,0.7804025419480782,0.772039791125162,0.7617407075378735,0.7599054371624161,0.7580642782568623,0.764593128509919,0.7556182726064271,0.744225710756959,0.6917840274954503,0.6324209697022678,0.5602145205581512,0.49529137933088596,0.49777630652454063,0.5637816013319739,0.6251531431637074,0.6794847864313363,0.7325659747214914,0.7648675799929274,0.770357129745624,0.7989511267712841,0.8672674161433254,0.9363255789289553,0.9427180762141238,0.8661504045746706,0.7721268077036754,0.6724848988312957,0.5757484681373459,0.5827397519471653,0.6715795609321866,0.7584465428612523,0.7964766549304454,0.7932110695367045,0.7665975075279337,0.7402839771441159,0.7540919240193051,0.7783460686148909,0.778522616861461,0.7774671109787261,0.7809238351694769,0.7737577039609345,0.7706495757786695,0.7595028991865587,0.7603684396436428,0.7695491264821739,0.7650840649376625,0.7582600609717451,0.7404509228241636,0.6969761095220697,0.6371550638453722,0.5635299546577193,0.49151305081925245,0.47604034706862763,0.5245025236152292,0.5880728396899626,0.6478460592132806,0.700070535341297,0.7338812201646074,0.753066071075106,0.7725719412166303,0.8245961260231456,0.9034307290233683,0.9839829430221656,1.0000000000000002,0.9218469677648338,0.8255633606010366,0.7274310509723818,0.6240990303208702,0.5671841573269096,0.632355198689232,0.7241769461130911,0.7934533965159731,0.8012139497845452,0.775831710758452,0.741648000314896,0.7573300076260414,0.7806523727624362,0.7745397954339961,0.77798876144812,0.7678180796591005,0.7665981175757868,0.7556617210843635,0.7625632157236242,0.7711777451913224,0.7725071664962673,0.7541051816001889,0.7104414280219669,0.6504879526490852,0.5792644619390506,0.5076559577689139,0.4898067385148208,0.5309446150668806,0.5135455288308937,0.5689435392347268,0.6264944249110973,0.6774700496109032,0.7065265502272211,0.7369385304609282,No
0.7345587916534773,0.7493172323771777,0.7463072272301112,0.7382766943787149,0.7411610693740815,0.7435442036150217,0.7545730219108946,0.7539665013646375,0.7450103134529671,0.7226502083840076,0.6988302278523828,0.7161482519049907,0.7463963984160711,0.7650606783197946,0.7443531529466634,0.6781619109644035,0.6007217724231546,0.5243057023042417,0.4529005676540705,0.3746788903907612,0.29581823246432193,0.2169570462201993,0.13809585997607687,0.05955022533750931,0.0,0.023230059121050584,0.09292587900528426,0.16694214447583144,0.24550526553873442,0.3184031431321497,0.3929519224961344,0.47173798700640424,0.5485967424997968,0.6197559192412059,0.6976957839773972,0.771948403695923,0.8449066562079461,0.9004445099767631,0.8649794153839299,0.8235758422155541,0.7959895358986151,0.7910584433909795,0.7819776925171054,0.7658625124183458,0.741536635214721,0.7190025645801081,0.6951150886299304,0.6878015230392289,0.7020597109254294,0.7317919434635158,0.7524743588991449,0.7495355656269234,0.7367285389175611,0.73416538706248,0.7402124634270961,0.751019370373716,0.7563048081324919,0.7546203495417507,0.7355887575771443,0.7122481641509544,0.719247804301528,0.7477050765134976,0.7676521781700476,0.7424566322496349,0.6749333157078132,0.5982796074644394,0.5255631266724452,0.4508372330308279,0.37203156914688584,0.2935833367525158,0.22172782342558484,0.14597378355104773,0.06753097777154715,0.009615967103965728,0.036071308587931616,0.107080281560477,0.18014378517246632,0.2543085259692337,0.32739981744874935,0.4058462333938633,0.4785320496403418,0.553311400655889,0.632116092796025,0.7109772281330553,0.7889992197164375,0.8290506470141588,0.7948457203324715,0.7634402645245444,0.7455280592557021,0.7360480212158873,0.7300830187432976,0.7115389794368268,0.6834184624885085,0.657436627993373,0.6459711127378844,0.6664766380518763,0.7003664205692643,0.7375134889727228,0.7610678697081992,0.7654612645595198,0.7603495032023315,0.7555019441849311,0.7620219961338626,0.768121352532815,0.7700630513966706,0.7537620745998495,0.7336144195630072,0.7409127122782491,0.7715071813085435,0.7934281877958573,0.7706352633612998,0.7133645978668373,0.6370741479254403,0.5582199340174301,0.47941545577879907,0.40464062264154355,0.33195065146392344,0.25332609964031416,0.1749655542244084,0.10397836175948649,0.05961129286891942,0.1015105800712135,0.17717097247842695,0.24820174267529782,0.32538136899124526,0.40112647306178095,0.4729854985118309,0.5514329364628208,0.629326673918996,0.700389582325913,0.7773009353382869,0.8393874148856795,0.8282971313543828,0.8026892988517289,0.7911504547590085,0.7744592588764738,0.754467739505633,0.7290438876633869,0.6982287113372272,0.6668080409004076,0.6469980419119119,0.6569243504912332,0.6789968758210925,0.7042512100530391,0.73914700368846,0.7648595567282102,0.7875623202910804,0.8061452670434495,0.8216608739889366,0.8354738055514614,0.870488784251314,0.9252374093679006,0.9681191990076661,0.935209628251563,0.8659279591720026,0.7910785056243637,0.7161784647639302,0.6436460945252758,0.565405232375775,0.5163190945851373,0.5691897790949085,0.6474572838371968,0.7196046584135445,0.7920555791671546,0.8471930532038423,0.8383957513355991,0.8192571257901524,0.7911890585987302,0.7677730813900883,0.7819008737982611,0.7963055663036396,0.8006742544659322,0.7927239318677588,0.7835048443950958,0.787448634382647,0.7981072680597214,0.7998647836394186,0.7847249176861899,0.7568157407582417,0.7193793664040582,0.6877263511654907,0.6884028270381315,0.7132409335081265,0.740895253841549,0.7598833922417341,0.7696330599596473,0.7755162761047933,0.7944328361499626,0.828105173505969,0.8789359597740345,0.9308744863134091,0.9139639922010216,0.8474274554907759,0.7743022258895123,0.7011639291433673,0.62271899383637,0.5501568273022197,0.4913432718101647,0.5273431189627453,0.5982650152096423,0.671530766152513,0.7297310635833423,0.7941818480110143,0.821755516906304,0.8014352581691477,0.7805739784804826,0.7530555574964248,0.7543204996548152,0.7751154342013695,0.7899008435453931,0.7884904913295401,0.7780277609872615,0.7656367856182558,0.7604297520087098,0.7709854610063891,0.7833066100634727,0.7851196828498805,0.7655695591112555,0.7358319442159966,0.7263005757500773,0.7367604569542741,0.7609409317086482,0.7845516908140808,0.8088891478185118,0.8195315026145404,0.8252366256319346,0.8488903369138909,0.8908134454646066,0.9491168956625431,1.0000000000000002,0.9757116006523654,0.9062815997019882,0.8316525214340245,0.7590548984576038,0.6806151121240294,0.6101976836859633,0.5999027398761723,0.6695710711544922,0.7450360434600019,0.8126656613252967,0.8310804327452457,0.8018906119678868,0.777886700217538,0.7490852555215268,0.7434986347154378,0.7674844063118844,0.783307858135766,0.7863070966891166,0.7845277545658567,0.7781364056913174,0.7766307148747853,0.77199706655577,0.7827189288610876,0.7874841204479215,0.7727710216170358,No
0.9069470760599216,0.913545353912439,0.9001216851388132,0.8804886482993766,0.891031453168373,0.9262975318735553,0.9428856078631518,0.9240043823524697,0.853577095994051,0.7570792263148767,0.6624283325954785,0.5602530866045523,0.4749400401016506,0.39151411062309727,0.29511140325975505,0.19808913503903414,0.1063392982069733,0.07835102868042942,0.15099781853299987,0.24650759535332534,0.3508874930752077,0.4553265802202935,0.5516468708743894,0.6491403572040984,0.7413494322082141,0.8279515884813025,0.8921481084099265,0.8988307002156186,0.8872842447435159,0.8705944028317667,0.8424143593686031,0.796693135008109,0.7345239049706729,0.6781476546751439,0.6304579970284911,0.6294008189722273,0.6860967035254486,0.7602974740437545,0.8313659441496233,0.8768820342617505,0.8911940607531594,0.8885202424897738,0.8799976013208912,0.8847147312909955,0.8863837390750242,0.8930624864358179,0.8965417830140598,0.9040606437612486,0.9105422309701736,0.9008815392639953,0.8940187995226796,0.8950402561147657,0.8959933975029073,0.89837125816201,0.8829614494681541,0.8865017647120688,0.9142345585628582,0.929790454289857,0.9324456171791367,0.8924171424548861,0.8051539216206316,0.7057475251537637,0.6119683581728186,0.5091523045967628,0.4097274715233914,0.3138571560063548,0.2111924143957351,0.11770695204170445,0.03211358514099949,0.03824877903270929,0.1306098607836257,0.22434874726784182,0.32693333187210283,0.4229514828071155,0.5213134580253547,0.6155278094331922,0.7106073711254597,0.801483176119616,0.8680573816135109,0.887729146579566,0.8746055068134515,0.8515170912983323,0.8094617353531701,0.7530006798211781,0.6905003634608935,0.6351772237429985,0.6052259856316708,0.6322902170452327,0.7021048274580632,0.7765182002415107,0.8385881396971828,0.8657624020999077,0.8704861102634718,0.8679696349974901,0.851998341166206,0.8543167996770618,0.8566695192968714,0.8640666349746913,0.8667247785128858,0.8672969903559595,0.8682658353818304,0.8770406539585185,0.8774334384805464,0.8742113981435904,0.8538310728206415,0.8644441041875686,0.8961224008184745,0.9159854145654651,0.9130141208270759,0.8802215446621608,0.7925524245676403,0.6920585002521409,0.597908434507556,0.4949229782154374,0.4001932616671364,0.2993597388227145,0.1989115648108648,0.10393232297190647,0.0082235330554008,0.0,0.08606536922627894,0.18007499495025514,0.2831006018835589,0.37778789095126886,0.4770738601093405,0.5707971689034848,0.6671209771085911,0.7602405247601869,0.8410213254941534,0.8807436682025038,0.87841819117858,0.8564678396437553,0.8369094566203139,0.7940418982453901,0.7384773051258224,0.7241842002558361,0.7861738741107995,0.8406016891559833,0.8809779899494852,0.9008244205912344,0.9216384686138408,0.9249759468832361,0.8944821414119937,0.8249856079870925,0.7399128590822914,0.6446296064848474,0.5509205976933154,0.4495016497158706,0.3553862625493682,0.27664534329948065,0.3291140527439227,0.4323883799319219,0.5272808682132446,0.6279224553779756,0.7326080857773487,0.8344307263285589,0.9224203429477833,0.9817007740239472,0.9765213333629812,0.9619409705697306,0.9342696780678739,0.9064121284774083,0.9190976043503962,0.9235188875843758,0.9232775276611545,0.9183963878044259,0.9177803221857066,0.9102426560839634,0.9123680843176976,0.9114779137910904,0.9010170640007527,0.8983431337518484,0.9093867574994792,0.9198689334893286,0.9215707430396773,0.9178579178116761,0.8930632795515878,0.8388464265752669,0.7664922678788453,0.6871429582968065,0.6529763693988038,0.6883403164559319,0.7532048696792573,0.812502550327804,0.8625118944868118,0.8975771504817831,0.9183953203265611,0.938635645650522,0.9288563096934568,0.8877443639627525,0.8133472129724675,0.7231680003597072,0.628042168644201,0.5332645721516456,0.4952456307951172,0.5782398495922174,0.6792333479550718,0.7732907894370897,0.865256484189866,0.9335052405321549,0.9866522252312722,0.9805185683651199,0.9786820934277021,0.9559040345852816,0.9261337904371572,0.928128774215379,0.940535306114672,0.9396627638395403,0.939265066667546,0.9479923221903572,0.950331749913353,0.9559207442154052,0.9507250772167697,0.9470327046276328,0.9416364041302234,0.9358762092151105,0.9317329887892849,0.9291630587448223,0.9386407138850452,0.9374963044227704,0.9245791427152739,0.8888253912940991,0.8220796062911218,0.7518520716022139,0.6882723616357596,0.6937302930089837,0.7492483138466852,0.8089274967629043,0.8631448543403919,0.9009319116608854,0.9255534459426928,0.9407140532636409,0.950074969992643,0.922323472791148,0.8548515935402281,0.7606803726609996,0.6668797926064274,0.5733270396213177,0.47198201906492665,0.39180106896846745,0.42926624603430996,0.5102882151612138,0.6019393958753532,0.704043375647557,0.8008860821623633,0.8938422409374351,0.9730228062361035,1.0,0.9859060648508415,0.9739968323576109,0.9379479308644298,0.9241504630908932,0.9458815558546756,0.9541520764294318,0.9434262243275189,No
0.8499069792954393,0.8456427550775335,0.8446175108515727,0.8488781266102824,0.8501819698967134,0.8501757838070948,0.847150835037285,0.8246204772246003,0.8117238157040286,0.8349874861750052,0.8587159230333948,0.821188426233091,0.7455027281093335,0.6712132910700593,0.5905551880248446,0.5096296307907572,0.4326892915375423,0.3580374731632875,0.2773167487533631,0.19667143261822828,0.12239675617285728,0.04606342736079039,0.0,0.04709186614771488,0.12074214676928385,0.20136026277851615,0.2814921026640226,0.35471193091565334,0.4336309431039279,0.5145064515146055,0.590702392289402,0.6659990361950351,0.7430077498391195,0.8152330598777103,0.8661962267370288,0.8669756637117106,0.8534076177741198,0.845433557860828,0.8298386912721668,0.8030041228280175,0.7633388464976619,0.71954543054344,0.684880913747617,0.6841192335492047,0.7248109049658121,0.7714540703541114,0.8037056667169052,0.8182024161871689,0.8218162158723993,0.8167338443820588,0.8092632976626345,0.8118271659199162,0.817723617738508,0.8214768773484123,0.832001687799896,0.8377589106532762,0.8471728850319961,0.8499419603307486,0.8406289783085924,0.8148279715397765,0.8043094029163037,0.8340014057169344,0.8501945868737978,0.7953194907668618,0.7222295189490363,0.643895019166855,0.5629556718068266,0.48489467954235466,0.4111518515145026,0.3306741979346596,0.2503241262212895,0.1770512644925003,0.1084337364388871,0.05589359858079901,0.07501200800534058,0.14361837990066217,0.2227101932869312,0.30368152297732565,0.3846590050424382,0.46563648710755057,0.5464127298204028,0.6214379973703456,0.6977416551406924,0.7724917009576645,0.8448575525050516,0.8735692068362838,0.8610837521227158,0.8582268724379295,0.851274245163732,0.8292181450624277,0.7937836752472339,0.7499540508908155,0.7065537903911395,0.6852293454621033,0.6974982518682756,0.7368546448126688,0.7759916619400667,0.8015452020269146,0.8157695448550483,0.815404278505481,0.8081224304230935,0.8123407490923414,0.8258046871836039,0.8404538583414242,0.8496342296889482,0.8552083035197874,0.8608721498265776,0.8620175880667514,0.8467019297338495,0.8255106720429829,0.8347991623536691,0.8746307622530983,0.8906161144893884,0.8335400699793395,0.759870165111801,0.6821757087759371,0.6012388202514359,0.5225800880038675,0.4492291351767802,0.36896504474023784,0.2880862442801123,0.21205611694520388,0.13659334164339054,0.06443346322823784,0.0701873028704284,0.13702026894959263,0.21643111577563323,0.2973396949452015,0.3739466981370635,0.4488930459533159,0.5296570123316947,0.6086283521834531,0.6817999111976242,0.7597545228785708,0.8328489875487938,0.9049051027999845,0.9277225336119029,0.911617111247781,0.8966261510214003,0.8857513087463654,0.8711863590474268,0.84403449992538,0.8570705654160594,0.8942570787248917,0.9160967721944481,0.9277753752574375,0.9409848550114924,0.9610284801538304,1.0,0.9859599772896369,0.9195985984500735,0.8442357754580377,0.7698018617261085,0.6910707317370194,0.6179146804534649,0.5431292563823088,0.546149012996466,0.6060038401218103,0.6737645666483595,0.7506552521532611,0.8161221759039142,0.8941109061888645,0.955120688619132,0.9512335641106168,0.9168154381319481,0.8799686169861379,0.8663154252886821,0.8852975085838298,0.8965619216948703,0.8956352016252666,0.8864740463005009,0.8770096606338592,0.8676437836139393,0.853202154450036,0.8429905348253529,0.8391256675850486,0.8447814821104692,0.8471315398990925,0.834680757073842,0.8157305501162192,0.7803149780715665,0.738777510812454,0.7289071287988594,0.7656430849391688,0.8112061997882664,0.8486693373653006,0.8747458299506382,0.8938901371771334,0.8984803505771933,0.9112638273402952,0.9486803319481477,0.9562050836428678,0.8922707219792446,0.8150238500045098,0.7408690332925193,0.6628302964922782,0.592045084113625,0.5759802417474734,0.6470966292270587,0.7279625616620456,0.8046282902800722,0.8770395153828782,0.9191714166952499,0.893705849371672,0.8672966464240587,0.84332125492263,0.861252290924646,0.8809283717051374,0.8830626647757932,0.8755072990895424,0.8674936831339025,0.8619891789020339,0.8501802164016795,0.848951665903631,0.8427746544509792,0.8445492861340235,0.8569786522027353,0.8601013677858934,0.8511914066438929,0.8367828898182433,0.8148718025653442,0.771938039965458,0.7268330681165697,0.7288479733112533,0.7674621097514686,0.8107060345805536,0.8443369235162553,0.8682238842035738,0.8834114734688335,0.8863215638949639,0.9031199563927615,0.9277092010284841,0.9130514062145275,0.847513500570893,0.7737270897809218,0.6971965719818446,0.6163191846527624,0.5449377287552043,0.5606735771316863,0.6376470821240435,0.7184502612343572,0.7937865466561681,0.8675459961859991,0.9167834215510388,0.902001613153035,0.8729091780697543,0.8453462026846957,0.8606999363631737,0.8823353313898393,0.8840502757937311,0.8774811119586833,0.8810815865028326,0.8761227323414419,0.8757968497536303,0.8757968497536303,No
0.45938418365886435,0.5007113529399141,0.5768865310151989,0.637961854042099,0.6822604890799528,0.7398869129278958,0.7858779362383017,0.8271196963193979,0.8395466591766758,0.822318458745757,0.808696552068072,0.8164104677354871,0.8279688973358903,0.8358967924698391,0.8265200235181491,0.8104322578865837,0.7945837817856005,0.8180185284238468,0.8444258299075766,0.8260422517218147,0.7511105785914327,0.6579549116086847,0.5646764839685763,0.46454318936694583,0.36629392790405313,0.27618725818052337,0.17731870498283753,0.07904488489568218,0.0,0.0046987735266212916,0.08940415246543387,0.1842101106332592,0.27694517424337484,0.3713700841475376,0.4715571499939333,0.5676508201418224,0.6589731627354185,0.7563910681190649,0.8405502420170605,0.8521470014100276,0.817805804265288,0.7914855726451,0.761072755450094,0.729077400550064,0.6913683119966416,0.6480499048402879,0.6107418809441651,0.6111445356479965,0.6419681705928855,0.6934466575918408,0.7476131578115726,0.7938692416409854,0.8250101492686386,0.8303084757567967,0.8243122812005654,0.8177000866173905,0.8239771995154257,0.842321765625869,0.8495695966040504,0.8418477749614763,0.8275535849456381,0.850324392784922,0.8794167710573957,0.9055018486873174,0.8990187234226226,0.8342677722991954,0.7412174251388994,0.6512305227589281,0.5526234235912697,0.45279390320523194,0.361472972121208,0.2653689813946083,0.1660233521313461,0.08488950816492458,0.07973370458148943,0.15679832976642283,0.24784901750228405,0.34393298901585667,0.43493612240787005,0.5346324846967061,0.6349521954980593,0.7352553067745111,0.832356320236304,0.902173880902903,0.8861089703451088,0.8641069287334813,0.8465967822988993,0.8188528043317373,0.781105552068762,0.738482651010139,0.6999009720963869,0.6915500545969091,0.7213661002571743,0.7687167926504315,0.8182716702892736,0.8396348283400878,0.8463719094391617,0.8412961405542108,0.8292656261992923,0.8288820469355009,0.8363024927221923,0.8343307992858549,0.8304855844130579,0.810950742359358,0.8161064052340801,0.8360993996367454,0.857682166470985,0.8214617860430247,0.7353560844963907,0.6433084419573039,0.5479032172511387,0.4562436152409528,0.3563559487445591,0.25797739936296415,0.16839803690821564,0.09543802646938726,0.12472331354262733,0.21167346075506677,0.3024136119813985,0.3983602074242949,0.49864200597765707,0.5989615626855276,0.6986394511669207,0.788640067104478,0.8469484907604476,0.8424274138549412,0.8321694196163762,0.810078555775172,0.7782358156169158,0.7342314239619894,0.6959617943643979,0.6857219148925084,0.7096705026001868,0.7587476102239838,0.8112335415270424,0.846796900169978,0.8743085197431966,0.8942306910007125,0.9196373593813938,0.9141746917212581,0.8815818523175123,0.8471018102583305,0.7918253735676166,0.748197152328796,0.7280570909872588,0.7534723389690692,0.797996688196204,0.8335686839253933,0.8597750943573197,0.8777200693249299,0.890538613363197,0.9356608819565562,0.938420878740938,0.8610782936370343,0.7716860541203441,0.6728691548326324,0.5807216199504279,0.4856017326064004,0.3927526848815688,0.4032804917241748,0.499369719947925,0.5913671096221864,0.6864271423193964,0.7785741067329646,0.8585354144471915,0.8943594878149757,0.8994603422148266,0.8736548120542484,0.8542414981046189,0.8638297868028637,0.8878929359497203,0.8873920701825764,0.8766318249630194,0.8799515287987614,0.8760789497933286,0.8776468880338761,0.8861365425710455,0.9003247273065029,0.8982597128344509,0.8660542642388478,0.8210642055745856,0.7745119407122623,0.7386240889607154,0.75517227741953,0.7974556222518894,0.8400899936120925,0.8730022138361222,0.8888028547839797,0.9098133717905124,0.9503273136053298,1.0,0.9685748064746704,0.8844493739998023,0.7900728782806699,0.6986142563690891,0.6027658703418348,0.5117378243820916,0.5224358970127874,0.6161611245981056,0.7134383127525181,0.8032008539420299,0.8892939894517413,0.9419941415179367,0.946901487465782,0.9207880803616777,0.8931142080905112,0.8803918046629824,0.8927048122480592,0.902310638233399,0.8822602665577564,0.864024740994743,0.8786060112535838,0.876543414158176,0.8793884832729857,0.8667656230995413,0.8383444073081958,0.7945518291655942,0.7412656864251108,0.6898379657146911,0.6650094795534103,0.6936953663150476,0.7333078822727277,0.7665732919322794,0.7961647560743494,0.8272687219259041,0.8505954483274589,0.8908224032475553,0.9441545389722288,0.9297490669801038,0.849619276825913,0.7591702523877188,0.6595199744924747,0.55926871498884,0.4749678393726948,0.5069882791001723,0.6047357824644801,0.7003717178999875,0.7905357647771636,0.8683230549292711,0.8937434264648849,0.8887666509499232,0.8560565974167464,0.8467076237150692,0.8656047162750435,0.8803335423684362,0.8773399872497998,0.8637198660253351,0.8488117366631482,0.8608049368671988,0.884263288823961,0.8802772421520708,0.8524220248510854,0.8155106423761387,0.768091620885841,0.7334742658263838,No
0.8452149532391247,0.8327757797204474,0.8199223048905193,0.8046481138334383,0.7750291072859958,0.7371138610557246,0.6948051436046361,0.6492068346452629,0.6320842426066589,0.6611894032896297,0.7167880693211848,0.7685799858143023,0.8064346005390621,0.8244918360717775,0.8300715662982203,0.8402884049411636,0.8462087995593361,0.8400778745874435,0.8297142735570204,0.8141207948990348,0.7887167805168083,0.7674762499564387,0.7877662059516266,0.8183042771482276,0.7998761180955387,0.7165044275813466,0.6231110414862242,0.5202797364917549,0.42937743821657137,0.3495919981493658,0.2569129031765771,0.16486595468702636,0.0673785483099516,0.0,0.040317969480067495,0.1354542749596359,0.22998888508197912,0.32979635604727053,0.4076541369936957,0.49585060250795565,0.5978568601309788,0.6902976050378322,0.7712921942239308,0.7960702385067508,0.8019736683306584,0.8121897898774872,0.7971055470801545,0.757508073036081,0.7237028327779285,0.6796405801035148,0.6405258606621091,0.6392750037908914,0.6875577613227841,0.7430438560777974,0.7938941995430844,0.8256914943126137,0.8329635552115564,0.8525045864566907,0.8467722687397112,0.8335488324663214,0.8297627039225588,0.8335658374957255,0.8427700493806893,0.8161841836025581,0.7975705525303656,0.8099599548067411,0.8422506093144453,0.8666601195843582,0.8124461190444527,0.7225832063357298,0.6309495634198099,0.5288711625885598,0.43597887754552844,0.33509856113511804,0.23044465175018192,0.13546020748765186,0.11567747959922658,0.19010896801824395,0.2906314790765505,0.36744318186477654,0.44859187323123106,0.5280535213660846,0.6200063920194914,0.717410370307584,0.810028890684906,0.8626638768597277,0.8676573279391973,0.8532963231318129,0.842644280918375,0.8212950036002697,0.7935359837185241,0.7576278533911018,0.7191811010534492,0.7045662551694847,0.7331373673347625,0.7833306707266463,0.8347666756708756,0.8699222202863408,0.8793917073397226,0.8795542765418085,0.8800732068529895,0.8933731426530669,0.911090472180996,0.9068169389761918,0.9065753832031456,0.8790855440802574,0.8491114597338869,0.8572796820368198,0.8872899528088849,0.9138820978734714,0.8749766487875712,0.7836479915526564,0.6855999918752207,0.5921647004973354,0.4923585312472547,0.3961108991232074,0.2993420961618185,0.20294597178297624,0.13589736529476837,0.1600115597704106,0.2538361312064972,0.3467493696136168,0.4497119023903753,0.5425701043439493,0.6434502224620304,0.747997808111253,0.8378002794975059,0.8715538126579012,0.8637438507447806,0.848680644404517,0.8331054941716085,0.8103244409397645,0.7772378035922263,0.7362103877317965,0.6897698576696667,0.6702636993186502,0.6968038946051422,0.7528661373815326,0.8165141403902176,0.7987579062112331,0.7454843788797618,0.7371461023500572,0.7786466052000407,0.815852246338004,0.8548767810652234,0.8776008839897933,0.8857753635839181,0.902524997256043,0.9226522976832519,0.9346360728807823,0.9116016771727053,0.8356358343015728,0.7451631203517002,0.6435277131478261,0.5686127502442899,0.6164816550417067,0.707801003311703,0.8088743305932937,0.8981492181196311,0.9724148000549884,0.9999999999999998,0.9620699603543705,0.9309635437071633,0.9069878444615724,0.922347276589013,0.950546298165462,0.9558745755542792,0.961163406205489,0.9495779712777408,0.935247776381084,0.931800682149883,0.9359623603780982,0.9338195815087988,0.9154294179793838,0.8784438922060003,0.8290273976939788,0.778391508644112,0.7633383134000493,0.8010105800264975,0.8344778186378587,0.8612517525451311,0.8835039414863697,0.901415570416219,0.9109402420278248,0.9174922626456967,0.8995333847960973,0.8444445522802069,0.7537913473361384,0.6619474581187712,0.5631971298983431,0.5431023474457486,0.6343858005744114,0.7275890894692261,0.8266709236895713,0.9075042268860078,0.9261869925977753,0.8988780556395322,0.8646799136016592,0.8426279825143366,0.8674788191120923,0.8856053153982237,0.8820343678445364,0.8754598461302996,0.873631718998855,0.8867687883804753,0.8998519286784006,0.8921132950840847,0.8722786096160531,0.8625201758593966,0.8291779012534441,0.7737624979568574,0.7155524851547257,0.6948075768436699,0.7300761061976477,0.7760514717146043,0.8085880774321075,0.8447001597340986,0.8529098778884061,0.8491504764940367,0.8427848025785429,0.8464905267512306,0.8302393315170653,0.755905351495761,0.6645651553274943,0.5675292346595129,0.5453803046661279,0.6305751225983849,0.7279508004626696,0.8147138663163103,0.8842397440050884,0.8905916892866708,0.8594864356321941,0.8294894518403251,0.8356964685150434,0.858583182126085,0.8748738660584003,0.8857261934838203,0.8861969817560362,0.8855847337042373,0.8767718304252747,0.8832368688417003,0.8772115643051441,0.8555306680200829,0.8257609602714482,0.7716328487149438,0.7111458273799476,0.6834432157536574,0.71145225146796,0.759623126279833,0.7944076276197392,0.8321837880954013,0.853447303780922,0.8715229414699668,0.8944736847419967,0.9026866266688567,No
0.3662587294534527,0.4206342423006344,0.4996081700026993,0.5488687607575673,0.5515217472622735,0.5019645338030125,0.42888708970384526,0.37985867630927994,0.3706576482499888,0.4102659857520008,0.4678880410334898,0.5248574077281045,0.6010143152275642,0.6671728613089409,0.7189303985587174,0.7366376390036287,0.7365491039574303,0.7284153548998908,0.7273895191619157,0.7281376360639396,0.7379771893668008,0.7437111276216886,0.7461028836424988,0.7378069996404597,0.7132019148504862,0.7117334435223186,0.746981051128119,0.7862324606015951,0.784358543735507,0.7203799539787861,0.6293441188028379,0.5342227750857851,0.43593465874905757,0.3321129007795163,0.22862115166131258,0.13352210310285995,0.04034941092956634,0.01332106385233689,0.09121274788604739,0.18613260646126917,0.28849574415398616,0.3820796524040935,0.4832168758789064,0.5809265384630304,0.6771462651696707,0.7749542204355584,0.848450410861433,0.8147056893520297,0.7640386641962955,0.7369059407344363,0.7202137905125952,0.6884175607678142,0.6489276912809476,0.6018083639668981,0.5668534556947562,0.5893534957797071,0.650532058067482,0.7104062376053135,0.7545264684112647,0.7761235025616933,0.7697875686624611,0.7563801431379993,0.7423358888050893,0.7428927158511849,0.7533541704776106,0.7544133695889119,0.7344930401427097,0.7151296389426443,0.7239420162183317,0.762715055569577,0.792701357402767,0.7665363637875786,0.6810692170622197,0.5782296267078952,0.48339807880718055,0.38420610977740366,0.28757140224566524,0.1902428282081996,0.08898365794534202,0.008845410809214638,0.014866108818754276,0.10558380994292182,0.20277761536376637,0.299421505100274,0.40004456502156316,0.49385358520519507,0.5965878812011569,0.6926278960636902,0.7904117997503333,0.8671640090964621,0.8295971788489593,0.7771164039557474,0.744272196660559,0.7255359475317587,0.7042367394658413,0.6610491284000841,0.617204077963311,0.6022818927282869,0.6273554428656101,0.6768124796335879,0.7150989497127935,0.7319740942794795,0.7410761461939601,0.7414957218670715,0.7415065707427684,0.744193741200196,0.7546342281700515,0.7624195948925205,0.7611872966455335,0.727749312821258,0.7197017490329167,0.7347388397358854,0.7734856082988397,0.7910575633733852,0.7531013890340792,0.6705230724884048,0.5781432808033453,0.478790613276566,0.38404817931768087,0.28460067921632937,0.18074186013942928,0.07761528146543961,0.0,0.02585042906176005,0.11597337982001132,0.21603273407473078,0.30980681341886207,0.4122639100162244,0.5069889344996015,0.6064990061328892,0.7071833525410081,0.7870729680436837,0.8521520338492268,0.8158845684253975,0.763978265185342,0.7411737882633371,0.7243697733714618,0.6945621289780424,0.6501735330716016,0.6153000923487291,0.6587501323276141,0.7080230164431498,0.746369887209839,0.767758434213635,0.7875394356046237,0.821714057579142,0.8876316337572927,0.9592802998593482,0.9592004770500493,0.8781578329792992,0.7852550173310959,0.6843388079029129,0.5846650405622205,0.4901092351026457,0.3971896413392759,0.41486719301140873,0.5062194748349267,0.6087300747078719,0.7026248001960016,0.7886936945941412,0.8269439133766454,0.8289786355139355,0.7991104748984172,0.7658972201262384,0.7758441810701422,0.8049113106775909,0.8090407061983083,0.8023413554985366,0.7917869732300002,0.7889465859210665,0.7854504196202017,0.7892025785996983,0.7847477184760496,0.7711271372414115,0.7438207019952254,0.7038652380226997,0.6522928015173082,0.6492003878028636,0.6919029204045839,0.7380378184453837,0.7617595308248108,0.783308956823606,0.8082436180815917,0.8641783569261348,0.9401074812550076,1.0,0.9675930615285657,0.8939901920115148,0.8116299324556038,0.7370126167645248,0.6388228789393118,0.5401132230890267,0.516632174652885,0.5980643391542841,0.6951052159530309,0.779752554438863,0.8275884642477753,0.8260285647418151,0.7966809632657559,0.7583778320274415,0.7623420393445608,0.7918805289379498,0.7925075682099765,0.7959846679908797,0.791544628378956,0.7899833930687907,0.801288216212074,0.8161841865330053,0.8209770451638114,0.8037935752123819,0.7703084701089451,0.721518937685055,0.651138919509298,0.618317345445476,0.654828545168884,0.7019969836672351,0.7377797972341931,0.7649385913410782,0.7854797304973906,0.819901314640326,0.888025531617024,0.9607943856763703,0.9624664721502851,0.8818391439304247,0.787805433207287,0.6859502176338044,0.5925281171907741,0.4909352424071649,0.4112752854679229,0.45939873519339836,0.5600170250836229,0.6530036621636546,0.7454094285532582,0.8155235471662468,0.8409137674915401,0.8270542195461403,0.7866238103991399,0.7558989383186421,0.7681006569483557,0.7873187866570723,0.785905601152669,0.7832928638225223,0.7758872176934521,0.7689936903069436,0.7700313821909628,0.7689236172254303,0.7793807813549982,0.7744977144214245,0.7532296199003423,0.706675402433004,0.6480720917488756,0.6080974729530086,0.63607684661861,0.6826725034478138,0.7271583556510586,No
0.6816344636365037,0.6685025261652262,0.6598924062862199,0.652688972084035,0.6337801723743461,0.6081864696695698,0.587953634098866,0.5585071056423367,0.5291489181478752,0.5227759344083598,0.519939529035951,0.562191512674592,0.6021062690448216,0.6480409629408084,0.6772910431723504,0.6938042830474704,0.6915846165655251,0.7017869589913657,0.6752275250675037,0.6791970053139655,0.6981878039938216,0.6832856999637116,0.6903882784686961,0.6836965390961991,0.6848106773728286,0.6933976207259578,0.686258733378553,0.6961084578744701,0.6827109359329526,0.6819877300198192,0.6853869910334445,0.7096496513584345,0.7414482332722514,0.7566039454314337,0.7680981982984867,0.7758206855386809,0.7712754456002422,0.7137901437425103,0.6052181306258793,0.5052356592910447,0.3965698430016462,0.29087313136639814,0.18821922522355372,0.08079232153060589,0.0,0.0005593733634627895,0.09576914493398814,0.20841143606021983,0.30652368065019386,0.4186366903564922,0.5322099539484251,0.6305996250956132,0.7410965338689781,0.8054608226171762,0.7543532305036318,0.7276701150397353,0.7310776709566102,0.7135659352052981,0.7134205472387456,0.7045795514119884,0.6951407542027823,0.6675854399299972,0.640581156417833,0.6065644468608427,0.5667492368657308,0.5369381036800722,0.5292829229035232,0.5631130893210394,0.6196433475472736,0.6628034874241902,0.6913656953179959,0.7009203236959332,0.6827072671006449,0.6724437324745529,0.6828843466865822,0.7011813790580161,0.7223018269635766,0.7307031930546879,0.7399311541547324,0.726799270940472,0.7239365076501962,0.7176983434155915,0.7263615287585066,0.7349830349347393,0.7276452997472167,0.726242805458504,0.7263075381633848,0.7341439700863952,0.7529989678483582,0.7686565447202072,0.7539424623450586,0.7341859271719335,0.6624722046787284,0.5600261471887524,0.4452042551437363,0.33579823248897966,0.2605558050982113,0.17248758917604912,0.08276945810804115,0.056099623994742664,0.13572139279188988,0.23546541345574745,0.3434370381969831,0.4584424661794837,0.5678731791904572,0.6670636212356897,0.7474001549680578,0.711581535033198,0.6838992679080298,0.6819831710919049,0.6819782817940734,0.6790144474532966,0.6604894503488663,0.63982067833535,0.6145284087911453,0.5918811998091829,0.5604004761875996,0.5496014762899248,0.5648073781086489,0.6057670763220822,0.6469678521321032,0.6909539168887759,0.7039290635872488,0.7034060246898601,0.6884553566286198,0.6922290566485181,0.7057374185225656,0.7227873785043837,0.726011982280089,0.7155677455187308,0.7224996491178701,0.7412908747454305,0.7618551244099048,0.7987388795738144,0.7966379241023782,0.7965951075107496,0.7948111183818223,0.7919997413343216,0.7858207197748528,0.7835842101990478,0.7593937692427732,0.7572268244499636,0.7587845515938807,0.7753903978121963,0.7724283659040929,0.736429457595984,0.6977228944165601,0.6549291727236422,0.6101936872308817,0.6202235187994769,0.6461464075079446,0.6723551638716625,0.7057391147808549,0.7310903676417966,0.7350853850235155,0.7351162951283925,0.7408304676606665,0.7565156229966958,0.773203228901751,0.8343039273734458,0.8948385951061342,0.8706701176090723,0.7844648635144913,0.6795734857096258,0.585379646604578,0.5903186708527435,0.683234558310295,0.7662136507652146,0.8023282332027062,0.8202538315578058,0.8239555751003431,0.8351772492655773,0.8170843851394176,0.7938618084511728,0.7956463135555554,0.7826590380482039,0.7989365318198551,0.8014810044207685,0.8004145549498665,0.7846498952847725,0.7920836551325863,0.8043294488318424,0.8168225777693658,0.7976910911898742,0.78679507000717,0.7725202942801226,0.7429514650652327,0.7357269014509011,0.750111324523552,0.7570514471054488,0.7468350492574638,0.7221764817943046,0.677170802280902,0.6240322054046592,0.5923910368134773,0.6209135585058476,0.6564476474421044,0.6953550740097243,0.7279554013750764,0.7508359897999397,0.757541544910044,0.7719288942925853,0.789586842484916,0.7948242777374737,0.8023530554189957,0.8345234477294476,0.9133443013374545,0.9877961018024157,1.0,0.919001006787854,0.8255335295683106,0.7447546201137634,0.6497548468797381,0.5407119165950958,0.5146717330153088,0.602658814694145,0.7012287223083611,0.7896822782441317,0.8408199987990295,0.845295187904461,0.831473298202944,0.823367570216007,0.8037855911293255,0.7713060167907626,0.7546891136553326,0.7422266216406017,0.7591205352596542,0.7749577668269869,0.7620185905337822,0.7747262620652418,0.7553093636178412,0.7400550324833586,0.7680370734980224,0.7505534939686398,0.7512278699140928,0.7566563551449881,0.747987944200319,0.75982202807928,0.7749566986256209,0.7596964576685394,0.7538566461558576,0.7321886124719756,0.6887380922289008,0.6438533798883803,0.6026951266276761,0.5813751997043735,0.597919992073213,0.6398183638478061,0.6539443195052224,0.684490469547816,0.7115948113923993,0.7129977566752914,0.7194077789892077,0.735070808309652,0.7507510498947902,No
