0,1,2,3,4,5,6,7,8,9,10,11,12,13,14,15,16,17,18,19,20,21,22,23,24,25,26,27,28,29,30,31,32,33,34,35,36,37,38,39,40,41,42,43,44,45,46,47,48,49,50,51,52,53,54,55,56,57,58,59,60,61,62,63,64,65,66,67,68,69,70,71,72,73,74,75,76,77,78,79,80,81,82,83,84,85,86,87,88,89,90,91,92,93,94,95,96,97,98,99,100,101,102,103,104,105,106,107,108,109,110,111,112,113,114,115,116,117,118,119,120,121,122,123,124,125,126,127,128,129,130,131,132,133,134,135,136,137,138,139,140,141,142,143,144,145,146,147,148,149,150,151,152,153,154,155,156,157,158,159,160,161,162,163,164,165,166,167,168,169,170,171,172,173,174,175,176,177,178,179,180,181,182,183,184,185,186,187,188,189,190,191,192,193,194,195,196,197,198,199,200,201,202,203,204,205,206,207,208,209,210,211,212,213,214,215,216,217,218,219,220,221,222,223,224,225,226,227,228,229,230,231,232,233,234,235,236,237,238,239,240,241,242,243,244,245,246,247,248,249,250,251,252,253,254,Target
0.564747904280548,0.5573517332039323,0.5662363850165179,0.578665950215247,0.5878944277309056,0.5749678400965413,0.5607486117356474,0.5726136332034589,0.5989100224318643,0.5742399576445837,0.4958567428063426,0.4070904649246302,0.3200278873248744,0.2367315488020153,0.14949398239221823,0.06717826380733238,0.0,0.021059849957883015,0.10027037649046866,0.18872917335889372,0.2777592309172009,0.36442868718744414,0.447993616007465,0.5366276337563608,0.6256824622232967,0.7146762784669095,0.7900533165639584,0.7617565530935434,0.6817874995186838,0.6079733772780739,0.5483937860762319,0.49921842309103515,0.4529414546029432,0.39863094745511674,0.33741346989060916,0.27528636077038915,0.2124373120437274,0.17160533019677082,0.2026500484981567,0.27335135241055675,0.3465095695727639,0.4194508520374468,0.48927310562604964,0.5511280044939583,0.5828210219659004,0.5815315126515289,0.5717948527155284,0.5708438575304057,0.5834500848305503,0.5859989664469475,0.5653325693929113,0.5625102703695867,0.592204347307033,0.6077679009273135,0.5487295733600553,0.466047204182498,0.38235672189011216,0.29661016874232893,0.21217464888907644,0.12753261572070917,0.059791019247157684,0.0828952357455135,0.16537934825507328,0.2522423708114113,0.33560773335252236,0.4241424742087029,0.5131969794676278,0.602227895569828,0.6888957259448752,0.767660253692574,0.7735834386433521,0.6998371817943748,0.6260955300736771,0.5673859540616565,0.5198578698275701,0.47095153133071477,0.41725368225540305,0.358372703819542,0.29278892734061823,0.23585443328473954,0.21531030163386167,0.262097318001297,0.33304913003019176,0.4053235490915811,0.4804555790672508,0.5437787329326883,0.5833875257512219,0.5856331275643366,0.5741372082004296,0.5695397684929951,0.5819200610621046,0.5832239715006472,0.5665525160080768,0.5633008370239644,0.5931381880614844,0.5936449292820444,0.5288013117292839,0.4576968683825652,0.3748523969817318,0.29174665191658533,0.2034128674178205,0.1152361644593114,0.053129595925951345,0.08780373011536546,0.16964209185322787,0.2582997956753982,0.3439653735487772,0.42835076489369006,0.5172108217591699,0.6062659080487608,0.6950513190100788,0.7575558737008597,0.710866502497797,0.6293562423647293,0.5629878590155665,0.5139122304194107,0.46950845996174306,0.42206099517548756,0.36149588997639837,0.29900029853432775,0.237897859573042,0.19687756785511967,0.2233658914819322,0.2938795383168403,0.3690667122785093,0.44155770392027505,0.5086757532536069,0.564971822354447,0.5896383131795547,0.5910462762195731,0.6078906110018026,0.6121321528343698,0.590874886247874,0.5386685202016442,0.47329844203028315,0.3986121403204218,0.3220309275428458,0.253576759295559,0.23887899116505673,0.29517108676235926,0.35793384965296415,0.41682635537829016,0.470098861865882,0.5137739401588178,0.5623986450525859,0.6223825677652369,0.6970752830030981,0.7774533218118621,0.8598721398577588,0.9408209395974186,0.9552167971859332,0.8835545657292737,0.7982874120136408,0.7093204930625135,0.6202718547500251,0.5326305182154071,0.4495833661896854,0.36144052817703154,0.2809606279591125,0.2941291472642352,0.37478055387536646,0.4597490153473135,0.5424633049956008,0.6152780512153088,0.6323536843156513,0.6055077956306963,0.5905578000241168,0.6085069061304883,0.6085565605896589,0.5997393268810914,0.5954638127930162,0.6050918346916069,0.6105566942041057,0.589405132920383,0.5371133781270762,0.46948959674293855,0.39713151678928293,0.32490320385808624,0.2614491771492976,0.2657928566956852,0.3233432168370515,0.38725535601887107,0.4473869711339703,0.49843748141095523,0.546687989357583,0.5944009523926769,0.660418027405325,0.7370206017326276,0.8173739343357994,0.8989173544512022,0.9765847770794988,1.0,0.9305256195164934,0.8418099215475795,0.7527548352579866,0.6636997489683972,0.5746446626788041,0.48568084499764386,0.4003842973045745,0.3191605177263598,0.30593969327386994,0.385073499096818,0.46802466465815107,0.5527803666184189,0.6266814324379201,0.6480757199876684,0.6176771776286748,0.5884390347948646,0.5987805998804648,0.6116938407023759,0.6046836526750042,0.5941562396689734,0.5974520221818597,0.6092534156597219,0.6049303097494135,0.5706934552385462,0.5118682801970346,0.4437437421960847,0.37062452882176833,0.29927981478130017,0.23451786764676774,0.21152546041852405,0.26449118638649705,0.329854358973121,0.39122985813924605,0.4487527872835223,0.49608710025237823,0.5437191025022677,0.6001141804901532,0.670407575339219,0.7495267001269753,0.831055527001105,0.9119064722039535,0.9832619636004706,0.9715754474584734,0.8928821279847988,0.8069393944939419,0.7179355692004602,0.6289258433203727,0.5428656262981547,0.45882390042228594,0.37169264768377597,0.33809963144358657,0.4072121704096282,0.4909654173258694,0.5724091168245137,0.6261090292529344,0.6229090684417123,0.5961568864820842,0.6019613541057264,0.6103215005626287,0.6018060232337094,0.5909579054480946,0.584077076937013,0.5901119243720997,No
0.40786682063451696,0.34718256801271064,0.28508710894602085,0.23145004792963053,0.20021787159842952,0.1749729246482813,0.1486445786678976,0.12683160294356566,0.09543265533901124,0.0775433827530152,0.04854180595882385,0.023129916522499405,0.05176874026604328,0.10456770077518929,0.16302742687383287,0.21285785084955633,0.23328762692552496,0.232086284166524,0.2300274449619465,0.21949034497684383,0.19604510266675412,0.17276478608593782,0.19934028421816385,0.21312632108754037,0.1997300626759917,0.18588316109415037,0.16321477738977086,0.1602331588486957,0.2183681718159899,0.2842449111249047,0.34951486757980865,0.4096893135712737,0.4759552329479436,0.5460382425248652,0.6124562489834139,0.6812352967770022,0.7462301897357558,0.7415763391270743,0.6785952637025713,0.6210277641883443,0.5526926428065096,0.4858157222897107,0.41853903706357853,0.35291112367732114,0.2876899258684201,0.224375332424413,0.168633746071715,0.134107768644402,0.11397694270535297,0.08104977146645376,0.03600271736033289,0.0,0.011766631491107127,0.061206857389234925,0.11729162727678355,0.17327328411519327,0.21784854637714057,0.23675098888167312,0.24537152467826007,0.24623594788269,0.23537628645220054,0.20755662820542542,0.19639278717032793,0.2347788171689903,0.24907420481959608,0.2415176542485743,0.23449507499000288,0.2159908415188273,0.24651296875617745,0.3136108121689295,0.37961571893872537,0.44924118819805414,0.5189407151492346,0.5828891757986284,0.6434455640903646,0.7095058024765067,0.7767596869284173,0.8258100507446674,0.7880318906536191,0.720621497484185,0.6546278042888384,0.5935990881856062,0.530993472735256,0.4625627646946321,0.39697984110544826,0.3324766678426291,0.270842120801562,0.21845580680463283,0.18747073429894967,0.16363439161031645,0.1267594123563991,0.07999302080544979,0.04428725978407122,0.05566536457448845,0.1044124916712863,0.15906199529571685,0.2142467498648336,0.2514814291200177,0.2556353972824218,0.2512849833728489,0.2396779091758684,0.22441811756362962,0.19192363974978033,0.17874266464880317,0.21234136561309513,0.21700710733862694,0.20266607690370309,0.18386532376662124,0.16154463206540481,0.18112816211056548,0.24555162923780405,0.3145226634177066,0.38073308321997745,0.4508328262756479,0.5189099574664447,0.5836805564195412,0.6448023751886275,0.710055641004563,0.7754254102287707,0.7860342331995481,0.731411438177011,0.7404883597091457,0.8067533606771383,0.8724901493666447,0.924275352900214,0.9000815535548742,0.8377461038169584,0.768722388751714,0.7027095422076804,0.6354649075552959,0.5749889236173163,0.5102826150877952,0.4405663762303821,0.37371974942750696,0.3054989347642586,0.23832480767034825,0.20428816027439478,0.21679948513987501,0.23165443314231748,0.2436455917931276,0.2383970368358025,0.209265316891054,0.23047194961036743,0.25237847386160694,0.2646203245388573,0.27430981432386525,0.27677066813036577,0.26430835896407057,0.22174524980362154,0.16868699849874247,0.11437047761492303,0.0721370390068623,0.08935815271901537,0.1339651311743778,0.17391271525891983,0.2007449743005726,0.22095627901046833,0.26886404046392787,0.33014048193065915,0.3943130792956483,0.46172652481208487,0.5281300633161062,0.5964541394075028,0.6629038571452418,0.7302290695890873,0.7975156383093728,0.8644542361429192,0.9316509351392658,0.9927412516273783,0.9999999999999999,0.9425842392692226,0.8768421168640269,0.8079290876150494,0.7397603583550357,0.6730610781248308,0.6096369257293889,0.54961830811666,0.4802913241358556,0.41245279323859163,0.3452503640648058,0.2792645336121119,0.2572270162479259,0.2618404954328982,0.2681861381600562,0.2667364758173091,0.23230368016195768,0.2382380814175039,0.25814920751667236,0.2623053280357103,0.2621750934435597,0.25549375141178465,0.23978473119027643,0.201157808194803,0.14937145523778028,0.1001124342951818,0.049570495861301356,0.02685766032491055,0.06209955231438524,0.10484158700660107,0.13545787367330797,0.15658769003354733,0.1982487789775107,0.259574148298752,0.3168378755632696,0.37742414656843637,0.44325864721962505,0.5122531558181033,0.5782773384338297,0.6477547843716914,0.7139693255183134,0.7810039048671255,0.8470701582641119,0.9113907928022754,0.9423498746328863,0.8977808358100551,0.8322658271376949,0.7660082612313416,0.6965682111256063,0.6305545840960228,0.5609113859397475,0.49096624089628615,0.42492476020867176,0.35549543631173564,0.28753520741906125,0.22475453337156648,0.20324237865779493,0.2148187265861653,0.22931544565411255,0.23796149565300506,0.21214527302362363,0.20724349076985316,0.23289977841193765,0.24606096171914282,0.2525746166315591,0.25284652400032315,0.25126689923088386,0.22199519572964743,0.1690829665408361,0.11410547906808532,0.06451022806515927,0.06733511001854364,0.11308921932642813,0.16254376195327747,0.19653733420969333,0.2196657324830028,0.25380882644822733,0.311546574046902,0.37776618668589024,0.4442385974464612,0.5102001161397774,0.5792342043668243,0.6452424093820991,0.7146690735908215,0.7809766799455656,0.8419361765400356,No
0.11326282877817961,0.15946881698451754,0.22761928455433278,0.27348148690546625,0.3134275146947585,0.2995277758405799,0.24561410129617256,0.18766328829003576,0.14379395566195163,0.1220992392386051,0.15602300544189895,0.2126572266857203,0.27454321827169137,0.34038993771166326,0.39686216647915473,0.4338752750078805,0.45075527505381263,0.4462455006062038,0.4378347185909397,0.44804728990315157,0.4563220276397719,0.468411977161721,0.47888650880531447,0.48859682673613314,0.488632155105837,0.46588633282573877,0.42802223401645145,0.4296927877985075,0.4658229735901407,0.4967741258856795,0.46573426635283655,0.38970529193148074,0.3100968533423931,0.22704731566296865,0.14698502770055333,0.06068187585291884,0.0,0.02900605903786535,0.11074492616139331,0.19995670884120598,0.28926092906490064,0.378563588631736,0.46681613327588867,0.5470298188940808,0.634182833029068,0.7233779885801921,0.794830492437022,0.7589473954992836,0.6814329450696972,0.6059204058440737,0.5372746595731543,0.48305705038530355,0.4548225869490823,0.4341502805354769,0.4096657794505014,0.3717607965007159,0.32320249530178713,0.2702880632894884,0.21575387510541577,0.16134592764436273,0.12717869365682066,0.14642369399665567,0.2020000294264821,0.26359225975983813,0.32507402266492247,0.38374852750214417,0.42354506719962925,0.43638889601636643,0.4407546870299788,0.4408094884371079,0.44287082107131104,0.45339583365804303,0.4642159387069307,0.4741154184941134,0.47767704506271125,0.47502345727701245,0.4496928364755215,0.4223667747554609,0.44113994489874786,0.48342360497466563,0.49546075398084,0.44153094721947816,0.3626717239365791,0.28029580102737883,0.19857123571016766,0.11761764148138809,0.05483282704193004,0.010879792917902087,0.05795977979510791,0.13810966385503143,0.22702310923530655,0.3163272000241071,0.40563142024780285,0.4949356404714975,0.5842276254346155,0.6709342649680572,0.7445323835511015,0.7842172284630484,0.7310966283672671,0.6516399928184389,0.5781902978170619,0.5116106036961745,0.46468152380310856,0.44218592990009586,0.43125264810139274,0.40728569199789444,0.3696085442416168,0.3169924209795909,0.2640792279165589,0.20934034632887366,0.1549418238099407,0.1245307565370879,0.14507467418699882,0.20027475189058408,0.26292098326179736,0.3252372773490759,0.3827166437754619,0.42184271330830336,0.43664676441890204,0.440764226687655,0.4400092556720394,0.43804365655836053,0.45025156201215966,0.4559099511936955,0.4646710996099621,0.4653996160813372,0.4624868333103773,0.4378684348516302,0.41042083006599106,0.4314175190749814,0.4722500190417378,0.49420523703060715,0.5239842526011524,0.5246356116936401,0.4889221402660624,0.46640560218815663,0.491830580130578,0.5063363264485377,0.5020991516688045,0.5008830680741281,0.49290717226195424,0.48360463523102304,0.4771339850094858,0.47183958339159515,0.4775117760650529,0.4807431957705055,0.4698471270346323,0.46115962487883966,0.4262104198521417,0.3761164450382122,0.315991270276458,0.25324164292513784,0.18883433042522935,0.16561179274087667,0.20808622761513762,0.2644691736672451,0.3200044488899505,0.37149912310452726,0.41585793547245764,0.44908410430154744,0.4698725135249462,0.48759788471813614,0.5290507318184878,0.5949998687246856,0.6694860475216156,0.7486930898332611,0.8284678924940372,0.9092007145906509,0.9762558735669931,0.9691612588301624,0.895475360391667,0.8079588097001427,0.7264392092371534,0.6412281007859844,0.5519873118343899,0.46607420766540786,0.38819886184484265,0.37558538513461337,0.44908762975123073,0.517876794257774,0.5415498036324,0.5265208776871981,0.4881179252811654,0.48001112451506334,0.5081622734905666,0.518822024027553,0.5105283447960054,0.5064377218263147,0.49748525514689534,0.48906164280457753,0.4766499325859761,0.47246161007771414,0.48136370447652865,0.4794398884597828,0.4696884575353537,0.44520226428774645,0.3991943746239939,0.34055547958688637,0.27889830143468486,0.21389774175114495,0.1731086195589513,0.20513490654307254,0.2628583485676901,0.3188324963083409,0.3670720545906869,0.4116339475661721,0.44868063663350677,0.47172781907293704,0.49158867376894655,0.5269889642751515,0.5921571816548052,0.6601972796684104,0.7226912567497963,0.8029395022324453,0.8835741149462999,0.9612665919302219,1.0,0.9455172085533405,0.8659465058414741,0.7777548478023979,0.6885085165554843,0.6038190462504356,0.5218521427401139,0.43284571917556747,0.34747826770705914,0.3361321553152936,0.39494604036588843,0.4536581879967021,0.5173265567982872,0.5406963921405925,0.523999911754641,0.48338602882276716,0.47306912303598914,0.5031512777909501,0.5190015171317688,0.5195227893387093,0.516406883023127,0.5070787909435719,0.49606447735782666,0.48412514340940715,0.48274823074965445,0.48705236185530243,0.4832056010297876,0.4690955540226307,0.43713047463786303,0.3837783304106619,0.32455466963864743,0.2805715116312475,0.3125019966903533,0.296622079768053,0.2801938126400103,0.32472506097900133,0.3755634564265531,0.4161725314180722,0.44914620256923943,No
0.5887225976019679,0.6012643846861514,0.5931173106835639,0.6019318028074474,0.611763389996379,0.6136065549286376,0.5941955188741701,0.5817213730785242,0.6101440959393194,0.6473894389174664,0.6348996278279324,0.5695468841229598,0.4955301738365292,0.4195391995102995,0.34322157440011325,0.26815667297658796,0.19675992670159204,0.13123333714165275,0.05690929605524131,0.0,0.029488853223993416,0.10381221690007136,0.1780351556307742,0.2419375103217395,0.30618837105771934,0.38337532741254465,0.462919751578152,0.5424333639382162,0.6191625030783277,0.6940901990401278,0.7696194727512804,0.7803911047608121,0.7190846365642622,0.6593418469198333,0.6162375631156756,0.5793294794344728,0.539673044222756,0.4883992981916314,0.44862177450172536,0.4617595333904496,0.5093255587495853,0.5609229426361275,0.6100077256796106,0.6366836299239744,0.6251868351079553,0.6241405245299547,0.6438611536181018,0.6651533397919558,0.6780036416100141,0.667981328139186,0.6452952673602503,0.6532091627626213,0.683079793690561,0.6733080850867603,0.6117735549432424,0.5340684588460733,0.4548850755148246,0.38039719997427923,0.3035858542275093,0.2293372893894846,0.1529716470759912,0.08135876737089676,0.05115517629813193,0.1060850603966299,0.18283167295018488,0.25710338426114787,0.3361849734361648,0.4157426611870094,0.49522515223387975,0.5714087096058977,0.6468331116930561,0.7262298582933395,0.7993038040071356,0.7951003811463755,0.730348820525148,0.6750542458062729,0.6315705267815355,0.5918775575455588,0.5443369273721133,0.48992286214380787,0.4384798737020892,0.4192208623584479,0.4535094240042039,0.5044854710200244,0.5565596721771067,0.5974562807063648,0.6046258479556796,0.5947488323205257,0.6024903410511497,0.617849092467885,0.6237209666894492,0.6063363608082997,0.5995847274636503,0.6318008283150145,0.65981217940782,0.6294823429833099,0.560291219979179,0.4859889273572613,0.410410491745256,0.34295094074359467,0.2747969297472216,0.2114395595579076,0.1357568948027148,0.06252929322111478,0.00661612465726702,0.032959283088193736,0.10895227439259403,0.188498257278516,0.26805653824661246,0.3476148192147095,0.42708878994405697,0.5031581641421827,0.5786925020004072,0.6581164790448479,0.7373972346578865,0.7920701838924782,0.7506921533734332,0.6870497408005449,0.6335964199253872,0.5952993626635181,0.5557263446777074,0.5040831244553876,0.4500024137757026,0.40561726355386507,0.4107213340512448,0.45710488585763187,0.5099927753857003,0.5591448306802611,0.5950286139862184,0.5939751689377653,0.5964693546593074,0.6112255585331055,0.6250350737522214,0.6404151498014701,0.6418824514533943,0.625454083704706,0.6135077316774373,0.6218373619703403,0.6054601139267426,0.562419585122176,0.5109056200515123,0.45743971969421615,0.4333381491736936,0.47526754030355733,0.5290655728041125,0.5781674071498826,0.616813496567292,0.6562452318521357,0.7136556724583953,0.7707250963619829,0.8381477791193088,0.9079464643123407,0.9623567623795086,0.9309885464950503,0.8557667945306957,0.7810444558250236,0.7017779664620325,0.6229606348550856,0.5489612598162115,0.4708257783046108,0.39128637642078057,0.3173836438080717,0.3179017322042452,0.3911077361843629,0.46553803638565006,0.5409311254932747,0.6131016573556096,0.6699810281872156,0.6834046759127981,0.6567502046372153,0.627266430001703,0.6391843482095545,0.6497585676441522,0.6409988749655811,0.6240568028822429,0.6221912684837412,0.6302048949494157,0.6086949775254411,0.5624652961280519,0.5091388261852898,0.46382109102863134,0.4683182618477173,0.5196962833703456,0.5707700556900206,0.6167335348122034,0.6561201874198328,0.703011890160806,0.7650823789342593,0.8337007865006199,0.904595293362707,0.9745607055171088,1.0,0.9410377346835914,0.8659927166961399,0.7866675017898792,0.7102188602056718,0.6350371227113503,0.5556669775838372,0.47610871965022517,0.3965629241700106,0.3228357066525346,0.326450259012132,0.39986361895952816,0.47400479140603213,0.5507993294739799,0.6182407636290521,0.6787369640721475,0.7134300171555328,0.7047202818767642,0.6755167739933281,0.6822256292753661,0.7027143731765761,0.6975922932911747,0.6814500002991188,0.6588190926123632,0.6486289705706372,0.6599057067896044,0.6448852184934286,0.599905364929828,0.5508303125006881,0.4981442866885446,0.4790642315226694,0.522704067849711,0.5715395573767674,0.608468543703502,0.646867310830425,0.6940930116873862,0.762374659077629,0.8333196684404218,0.9042059086202126,0.9575756099391544,0.9293300097819641,0.8558335331143128,0.7764617936644909,0.6996037372712254,0.6247779906970945,0.5454795523492106,0.46592139182722336,0.38699194993235864,0.3437461285844965,0.3977848991388513,0.47356250221153706,0.5483795204255169,0.6189875210544316,0.6728044767847647,0.6775196901280816,0.6439760819185427,0.6118443210483837,0.6229325909990595,0.638155011344046,0.6385593853969007,0.6262313631241203,0.6134446105377591,0.6251595810529427,0.6258569334636759,No
0.5308695190187708,0.578348697969486,0.6277305261896707,0.669650825389485,0.7203718800756612,0.7628410269625249,0.7781371487157388,0.7716409833110617,0.7625074005493747,0.759237757462825,0.7685726957684368,0.7607269823628434,0.7518287123897057,0.7680863365305263,0.7976518096904871,0.7964040109734559,0.7443397819964311,0.672621396059568,0.5971178710328301,0.5236334741701586,0.44572066821242873,0.3726954637352182,0.29572329241201756,0.2211361517542655,0.1461497517229432,0.07210010700205283,0.02489950383977524,0.06994441458063505,0.14798524947983493,0.2268803438120348,0.30546360443765297,0.37911778218141357,0.45530711005172464,0.5341701325978389,0.6130657583124713,0.6919613840271034,0.7706648617168902,0.8283836585535879,0.8105980126998383,0.7955129219790785,0.7747813007306791,0.7479660345793268,0.7083629951962359,0.6588273261811733,0.6151925831283959,0.5963727775053825,0.6256350079935397,0.6776172514059661,0.7270322130300354,0.7631740221401172,0.7749357682417685,0.7688730874780193,0.7574585422910011,0.7605466252937209,0.7505596767375621,0.7413786838455193,0.7649392022136344,0.7939551519724531,0.7959793252891308,0.75915931737598,0.6884894842126751,0.6130168674674533,0.5394968884341954,0.46334403115243206,0.40012440527145465,0.33732271949398174,0.2700554908970768,0.19502836389749523,0.11742479865113742,0.04538855663491115,0.0,0.04971718051283103,0.1274595598617846,0.20045795389752818,0.2776230624006045,0.3565086308340152,0.43540425654864745,0.514297051915852,0.5921729235907748,0.664995857511197,0.7421688031966728,0.7926993751136752,0.7873371433545607,0.7747531315873956,0.7526157902429659,0.7165870006746052,0.6686956179393798,0.6258165909949761,0.5990318113492444,0.6191113969627223,0.669371315698552,0.7199034693137732,0.7611157027348533,0.7778139985388227,0.7718434268543034,0.7642878232244216,0.7655001017724977,0.760018151166593,0.7458524124461218,0.7649261053352988,0.7930482286847677,0.796114286531964,0.7645197684241439,0.6951915814321902,0.6213378962367982,0.5472875817370967,0.4726347375424812,0.39776931733122745,0.3200048464167632,0.2471813299833201,0.16963037834501293,0.09520268335069149,0.02576029880326358,0.015628622802078995,0.08270218490113024,0.14905938195376223,0.21647613497012008,0.29494676414082355,0.3738422534662894,0.45273787918092345,0.5316335048955557,0.6105291306101878,0.689422183674581,0.7654150133139513,0.7938629430042506,0.7910444188300835,0.7774096647971703,0.7497812149301789,0.7082773369430498,0.6581936538228096,0.6151172051388686,0.5983307385928401,0.6295786667321598,0.6804351201184492,0.7319133849259954,0.7683262802087903,0.7899916832562067,0.7678765936447652,0.7225482333754957,0.6713510360701772,0.6325725442652129,0.6510346324964634,0.6960313538711581,0.7438688718671619,0.7811627568837748,0.8045137899931784,0.8201157448618829,0.8526022921152799,0.9186106408949194,0.9724939886503298,0.9422660685500229,0.8655852271498196,0.7893500450923309,0.7157382800846025,0.637163586773641,0.5582680957695375,0.47937395208006917,0.4029243562761292,0.3869609920378646,0.45657760233435585,0.5294700254176418,0.6052134120784277,0.6780601029494063,0.752577026128387,0.8182950518228126,0.8358964554762253,0.8271912198582833,0.8107705769492141,0.779166588557456,0.7806039925294684,0.7956906153199602,0.7860591883615352,0.7910814675294372,0.8006882565516681,0.8023897976187874,0.781258453689886,0.7402483059667039,0.6891307879989937,0.6416433226526593,0.6386099197276781,0.6797502139277792,0.7260010107084282,0.7657967076071984,0.7929265355460423,0.8098733750261445,0.8370935712670652,0.9006778012375841,0.9660828648303742,0.972857443175765,0.9026587886195502,0.8238620228087149,0.748346032087407,0.6741180265372456,0.5954069270004158,0.5165113012857833,0.43762928110112564,0.36519413703042924,0.37381212423274346,0.447706212163122,0.5206292106853986,0.5980374520156125,0.6709252460398843,0.7460357459067973,0.813408061053681,0.8363949946582993,0.8220650580314838,0.8104183166925948,0.7796181401352843,0.7737941097731774,0.7873141580756001,0.7835411683235293,0.7898521055848936,0.7985058375770756,0.800215966128511,0.7846412402540065,0.7492411330266217,0.697308705386822,0.6463382802936589,0.6302504457753794,0.6689438275490541,0.7187350360333488,0.7616925876395219,0.7927698536205899,0.8179276862885746,0.8361334097395402,0.8851277418777984,0.9554277643635368,0.9999999999999999,0.9590263061979684,0.8815568337860634,0.8026624186242209,0.7237667929095885,0.6448762364392299,0.5673041988859445,0.5066161826410737,0.5337556287475785,0.6086585474007119,0.681657398618085,0.7541002707907664,0.8217538987786813,0.8465468270859741,0.8302138205200852,0.8159728646947807,0.784424047764961,0.7803982193891844,0.7937652465408785,0.7886132107014635,0.7836775437480786,0.7908238237018338,0.8037322398485448,0.801635783697458,0.777579468121932,0.7357155925172542,0.6854492307098538,0.6355998163642368,No
0.9331219224618716,0.9358740443468003,0.9339759718686986,0.9375994231721818,0.9370821947318462,0.9218860448135731,0.8990669068585448,0.9191707994876215,0.9520266950737908,0.9626165633165711,0.9411059292962738,0.877049222842436,0.8082427291242542,0.7337781092965217,0.6586071389008286,0.5838231004910881,0.5143936821710808,0.4417213478291451,0.3668003286961108,0.2967684538238995,0.22487414555382224,0.1540183041359754,0.12024683947503723,0.16702855852233311,0.2408620208222011,0.3105428441708,0.38289452479675756,0.4580347374990479,0.5332061378240527,0.6077194995462547,0.6753454321181276,0.7364707134366981,0.8079510967955981,0.8812320127041551,0.9262757595726185,0.9188663293126929,0.8968402930527302,0.8751935676821814,0.8420000456593526,0.8050264237741536,0.7753668131056739,0.7753332389868401,0.8083915955411363,0.8559011529022924,0.9040323784390625,0.9251982010356534,0.9139495968222111,0.8991056437474705,0.9042853205665748,0.9126280867067451,0.9165107772773586,0.912028651921782,0.9117008855261748,0.9056281739231165,0.8801222898269225,0.8811586946550003,0.9095100356424182,0.9275080079290088,0.9170695002664986,0.8587924740225057,0.7897839175477306,0.7170029026842142,0.6449942339190624,0.5750470685160802,0.5002924843451653,0.4302000683511725,0.3684554059022679,0.3172029179431509,0.2603498176345048,0.1928131438886187,0.11868976731184255,0.05792111903674457,0.0713940996990301,0.14275913339419477,0.2178699961262316,0.28963974400098025,0.3598122211375322,0.4347873625899864,0.509958282126254,0.5843761172952071,0.6532692316538793,0.7268293362357496,0.8019136774229212,0.8701109883084313,0.891853493727282,0.8825381183028609,0.8874033291347434,0.8680945410435426,0.8313694931996876,0.790987493377995,0.7693020799838963,0.7854913668824675,0.8274876553166097,0.8785055010307232,0.9230687300167175,0.9420715803926345,0.9292146449237924,0.915421069082073,0.9189486757833274,0.9306568845145575,0.9375512166153483,0.9395119707190729,0.9446749208443921,0.9291775673271072,0.8901561767684634,0.8664727774208387,0.8855442277406813,0.9184885151406916,0.9205535064294237,0.8895170921396427,0.825493092895923,0.7568202849055263,0.6842679317892597,0.6152276342655925,0.5406770374037977,0.4668422867772756,0.3980250475970415,0.32381365321982647,0.2500090443583439,0.1811871404328197,0.1073494284101516,0.03870918104731169,0.0,0.050546390368320315,0.12143845050863444,0.19210068986502715,0.2671347610560272,0.34230692955759023,0.41745230216793494,0.4899710370624861,0.559514476914714,0.6343415614424857,0.7094164079195151,0.7803785072088396,0.836569429149878,0.8402649063374226,0.8433435990711975,0.8711269963646677,0.8911346635700577,0.8654802261560486,0.8460516241554676,0.8800390203802471,0.9134345041338927,0.9130765574477939,0.886096982365747,0.8678576504183617,0.884808307737613,0.913127231670301,0.8735118051247988,0.8042688107696068,0.7334860941728683,0.6584866494561816,0.5868367775871088,0.5418680644183516,0.5895232389663279,0.6627817871708064,0.7316441350387182,0.8035255801242001,0.8716959099349031,0.9280664573528137,0.9499872871183306,0.9513933421503398,0.9254671896167328,0.9017632241727016,0.9233982577592195,0.9581153057618788,0.970055438329853,0.9685281477951071,0.9598897675507823,0.9573528619874154,0.9472460575334682,0.9395146272586321,0.9496588703459916,0.9646448050697718,0.9600383996629753,0.9287108358327552,0.8779199694245363,0.8293048000383882,0.8015187017365475,0.8231245975478081,0.8618160516141007,0.8964413066903847,0.912922705378552,0.9126858447087762,0.9306894395626795,0.9705461663968615,0.9487215125544257,0.8773254542467981,0.8021770126194634,0.7290634921990851,0.6599304958751231,0.5853009538531124,0.5102022583184902,0.44936446782665473,0.4769411256110987,0.5472120960784217,0.6221573059177861,0.6928348503435486,0.7640507818878601,0.8367441823019834,0.904262130134841,0.955059180360607,0.9592115588015526,0.9500787205045798,0.9258147229348936,0.9065791625692003,0.9272749828623945,0.9373671219926769,0.9391893099227366,0.9411271144527953,0.9388123587169128,0.931461046243705,0.9257805945314315,0.9348764855772831,0.9464305224479515,0.9456437716883186,0.9163664158938118,0.869695936233644,0.8233413105618499,0.8000868631993114,0.8255725953974626,0.8638379143770845,0.8953260368167864,0.9176720396743039,0.9397081265518139,0.9618046228279791,1.0,0.9892475819682818,0.9254352191899002,0.8528917660615538,0.7798947416069844,0.7107013236597983,0.6360380271383073,0.5608661914763571,0.4858403290776141,0.43023350557817275,0.47095896576855567,0.5443888981007126,0.6131834647175916,0.6869542915970734,0.7565455186297305,0.8287687499290317,0.8986436642554883,0.9644250908732608,0.9948858950558872,0.9881123261310925,0.9752778348912032,0.941912013240535,0.9304801432617806,0.9570018999816872,0.9614554427148818,0.9588915325581988,0.9623472409738312,0.9589201376158107,0.9566318627806927,No
0.8655466740661804,0.8563087961027187,0.8552744548969426,0.8738176356468828,0.8715390931940561,0.8154420893565242,0.729667977350509,0.643156077210367,0.5608589715832473,0.4726341033692443,0.38837194953843057,0.3041529274158661,0.21668346429145824,0.13517090850891567,0.06964566415468487,0.0981698027914496,0.1807704983901839,0.2696072963757459,0.35766867580814177,0.439648759607161,0.5267770371738978,0.6156905326767061,0.7042814567639255,0.786367504719131,0.8398234568025973,0.833638704811055,0.8076760840363446,0.7771229351512954,0.7353124222843361,0.6851085643118713,0.6568721460767617,0.6910622061647447,0.749265349442565,0.7957381089312907,0.8254132019593927,0.8354921911358515,0.8360228892992105,0.839612820144712,0.8309492548894002,0.8437158762700971,0.8703816697720681,0.8767797947501454,0.8288639341104886,0.7489230817972037,0.6652753640294167,0.5794543309909312,0.49678160017552586,0.4082674751206945,0.31935169675844066,0.23205447547792946,0.15967741006248393,0.1602923616796058,0.2361179267273139,0.31956263047654887,0.4082677579096077,0.4971203743297459,0.5821297576662621,0.6656417768799465,0.7542350678655259,0.8367498477043698,0.8744964133347335,0.8619761624999964,0.8438556589446224,0.8088856803928384,0.7659829971788723,0.716093184306023,0.700345514118909,0.7399955790164123,0.8002700607086228,0.8502690576579455,0.8812891458126759,0.8938240870637131,0.8950206212202174,0.89884413214562,0.8894969554460461,0.8955821262409556,0.9119076870333676,0.8870221596009373,0.8126084557912729,0.7309065105829755,0.6502541173874055,0.5804109392839405,0.4955571510515975,0.4109940552135112,0.32709521009304554,0.2387991918120207,0.15721889565488023,0.10865240075977267,0.16417500737117874,0.245507907275749,0.3331022501072103,0.4218708874918158,0.5058834982045346,0.5903615950873604,0.67917976535867,0.767832650265289,0.8505365349765934,0.9079342516426157,0.8971346198047712,0.8807771618823823,0.8590774638344159,0.8227731988146119,0.7732975332054246,0.7357005819944364,0.7441144330770673,0.7957191193265001,0.8520535099320989,0.8839910409574654,0.8902590275372713,0.8876285483581081,0.8923169652683307,0.887505880747242,0.8598812753686054,0.8689297875495945,0.8619617642470829,0.812004124528231,0.7296532337987249,0.6471643395442528,0.5623722343597093,0.4805264006930954,0.3935376033520297,0.3114418351034727,0.2245830771724846,0.13777311785334223,0.05641286963172054,0.0,0.0460693083088487,0.1268824595618212,0.21478757878097454,0.3030909794158052,0.3853104765414106,0.47196122312813427,0.5608677335825478,0.6497888862379644,0.7372349072938842,0.7912813426916094,0.7931816230729791,0.7809035868344938,0.7550210410895901,0.7135557781029116,0.6599970847186609,0.6349943672399678,0.6656356036091211,0.7229750695540114,0.7794282989453443,0.8243625045923957,0.8048789152299307,0.7518041980848305,0.6928425348944107,0.6854076518437004,0.7329363248241716,0.7765272281353028,0.8038126380691828,0.8204531774959887,0.8321884852337689,0.8399997054819028,0.7854835707073899,0.7045758633283004,0.6168177969401332,0.5279236904499323,0.4430990265278618,0.4160445791775509,0.4899036395225935,0.5725818725171328,0.6577016155917594,0.7393471255433508,0.8174481548450361,0.8773069061074976,0.8980455435483621,0.8983011670731873,0.9109858206624561,0.9255176530110014,0.917979107985734,0.9181146975754173,0.9161336364891952,0.898610089423499,0.8572281083523396,0.8003649949571536,0.7704090083996402,0.8085099090185186,0.8531370718719962,0.8871588915679747,0.9105860761725038,0.9302492155124209,0.9715764526510806,1.0,0.941162079211886,0.8532559969536759,0.7643343899422381,0.6755148348773414,0.5997385695118826,0.618495233888396,0.6985480940124025,0.7843867438920316,0.8641850376547584,0.9263718802549399,0.9411592089952243,0.9340171228341407,0.9313626850770393,0.9340677741687087,0.9223407099225285,0.9196790821150922,0.9074430147743846,0.8720206982678433,0.8173711955205272,0.7592712394565133,0.7585859137374202,0.805571175500668,0.8493857991001879,0.8793988137604651,0.8958817984706693,0.919756109161971,0.9546120588389995,0.9135760736743828,0.833759803773412,0.7462577931354235,0.6611285414395929,0.6343624376506649,0.7042949693645728,0.7872018262686888,0.8689506946897787,0.9142301462048346,0.9110121797120925,0.8861752702257086,0.8732857169607162,0.8770409969249171,0.8675453986797248,0.8684205868309527,0.8598550271210388,0.8347803661910111,0.7950082998755095,0.7395535045407247,0.697006326396842,0.7268547317997409,0.7773580849034405,0.8151449756162272,0.8432227884322923,0.8681239904644706,0.8907515024642276,0.9025914114519555,0.8392490814790261,0.757962397934633,0.6705085034615461,0.5820819352128235,0.517586915842549,0.5599954760166241,0.6447670046334193,0.7270470132285642,0.8083787610666096,0.880184211048606,0.9117043000916978,0.9043354288827434,0.8919992694546275,0.8941743762744352,0.8941580838089673,No
0.7987022052416947,0.8074330597015128,0.8211266576363935,0.8285339640639265,0.828748220266664,0.825672007594951,0.8039546221068375,0.8159253098112377,0.850993868712605,0.8645430781679889,0.8279522788677297,0.7560724496628869,0.6807291534722223,0.600989197225596,0.5225531216288714,0.4444370763916373,0.3617838315702685,0.2793111996307779,0.2022906626680394,0.1236071696277301,0.06314613474999342,0.07749570423307106,0.14971122137082193,0.22875290970404205,0.3114795996853038,0.39424571938028297,0.4743996549477486,0.5510391570467378,0.6334045711721049,0.715996513370032,0.7894445177934543,0.835236196468874,0.8219233968844893,0.7980127439182475,0.7709458991592791,0.7326214914090544,0.6803409146383824,0.622618625774647,0.567487777503047,0.5200473051057021,0.5174161514019572,0.5666890379994381,0.6309521192033197,0.6977112878256836,0.7586937972441173,0.8130513649024823,0.84584961433077,0.8388849985148147,0.8410197875521258,0.8557023115885419,0.8720667503734457,0.8835179511439658,0.8775371349911606,0.866316514708053,0.8855830873064322,0.9133439845429331,0.8965589418922087,0.8312619255674544,0.7546192642152513,0.6785999896118459,0.5977590160019498,0.5160137209655781,0.4400028142563076,0.3586284629635651,0.27647381506340263,0.2001861682525694,0.12385553693317075,0.11289815215813204,0.18405247113839862,0.26042746887802615,0.34266220421077,0.4254516038531201,0.5082390497952424,0.5899984550901051,0.6660241556267449,0.7473815730890497,0.8299897983130912,0.8934919969654841,0.8795046732823041,0.8456834666199217,0.8091692273617007,0.7682890852644345,0.72315269495569,0.6663068518303691,0.6048075631524293,0.5478776921489737,0.5035211388778064,0.5037197732007709,0.5563525965675226,0.619224221818841,0.6854503806422748,0.7493514532284823,0.8012840260468076,0.8258054111721075,0.8155735349626664,0.8083214565396294,0.8185757714408447,0.8254250906322945,0.8242384038263381,0.8084285176477545,0.8054180640332115,0.8289883124101233,0.8406760308607734,0.8019308910486324,0.728988997954643,0.6518591953991212,0.5753440960851876,0.4930388231132089,0.4119895580240941,0.3358784306484083,0.2538946914689266,0.17114203629569358,0.09144549127823276,0.018208717117842,0.0,0.06950981205094742,0.1503811657922265,0.22652189717541915,0.3085473084465641,0.391336011139355,0.47384917175802854,0.551029985374394,0.630516038690946,0.7131897216527029,0.7846544054090231,0.7936060140276194,0.770491631922774,0.7362758281709126,0.6929890936577293,0.6387326887722625,0.578399908588931,0.5206488325146962,0.4712905479590027,0.46088507007638124,0.5074151103295267,0.5691694493337521,0.6369185870464448,0.7057368974503272,0.7643989605015583,0.80985646372085,0.8186254318878418,0.8117230555053633,0.8173547890468124,0.833748627211876,0.8550463875759274,0.8561967678806449,0.8417325439871163,0.8424431023159592,0.8524220002659958,0.8296803796339302,0.7821686433132101,0.7186447257664127,0.653255613748522,0.5877709093174776,0.5261759084745908,0.49935215779895625,0.5426492161234445,0.6003192695305336,0.6573896388674775,0.712768730485262,0.7566510462577539,0.7912656056943742,0.8176576285336169,0.8495840173324188,0.8889411684811656,0.857005817282711,0.7800119260202892,0.6972895013058135,0.6145270325714457,0.5414079246844917,0.5615389905485061,0.6391513669447325,0.7154073409634095,0.7908407663137652,0.8582308571090081,0.876909996917414,0.8645454117106898,0.8399872658342921,0.8380327427547142,0.8546039665253581,0.8541264673628745,0.8493735171485258,0.8419677395335686,0.8370857937653454,0.8502248810922067,0.8485638144248443,0.816808530448286,0.7606855992937477,0.69733877272369,0.6352247821315901,0.5740059373697893,0.5430667679335853,0.5842749492766489,0.6419956940037567,0.7002219715974211,0.7555727334582704,0.7986684722784197,0.8407790030048389,0.8761530632947584,0.9107937062986903,0.9644699359796597,0.9999999999999999,0.9522150360106151,0.8750995519590535,0.7929960483879636,0.7444950763718589,0.7968437343741243,0.8704473002438785,0.9313870227565207,0.946591066007661,0.9375004219558946,0.9048246410335213,0.897198553350738,0.9157151176439987,0.9093009993407976,0.8975615194516263,0.8817946076102509,0.8678629263025074,0.8745116088572854,0.8748744784663834,0.8436899357254636,0.7909602470336624,0.7342511392207228,0.6757598801553956,0.613831548542139,0.5584868334304941,0.5655875533879687,0.6191624323551675,0.6752305874674996,0.7278858848561164,0.7759688611720533,0.8078026611409969,0.8372191794881033,0.8699028817102973,0.9249986150209729,0.9527876887194636,0.896426224798342,0.8208327138418411,0.7389001691896443,0.6562175196057319,0.591186657676258,0.6294274155713927,0.7070281593856563,0.7837655799775184,0.855504493026315,0.8954002546581293,0.8908196873651272,0.8675291497322227,0.8380615998693076,0.8491144889703478,0.8555880780847686,0.8558690970331734,0.847850635854071,0.8351781273072986,0.8293790427705506,No
0.39218679779814414,0.44648504383634835,0.4934384510522196,0.4315466745926446,0.3424099077713556,0.26588094127635453,0.1892937839754818,0.10830744728995079,0.03551039051495897,0.05444823580316127,0.13873592592825545,0.23365617127643845,0.32743045403075266,0.3974079391746961,0.4667433954065079,0.5584582059036955,0.6537628056078026,0.7459356255511336,0.7710767766017952,0.735072058048303,0.7229454581218597,0.7044049708283098,0.6685111906345447,0.6136466501550384,0.5557386725089599,0.49342564706443337,0.4266084596713571,0.3593318806648256,0.3239908989792788,0.3623744364218098,0.44033992398016686,0.5155874830589988,0.5881668363691543,0.656079777115806,0.71404451722621,0.7422451746837007,0.7333678717850116,0.7264756458463197,0.7169367082979698,0.7213069192005321,0.7325476987713846,0.7421032273638977,0.7496065029368266,0.7316541315141194,0.7203266423007726,0.7446692816702285,0.7743200774305483,0.7853025919819949,0.7643046485256333,0.6828377602902895,0.5955660381374979,0.5030887276012996,0.41267564300116755,0.32346032390408186,0.22855721224731385,0.14017575020270168,0.08363578708908315,0.13248911081996062,0.2254599457228632,0.3207827660929763,0.41611068786752137,0.5114386096420653,0.606757359331483,0.7000471026513218,0.7847444312141347,0.8107388650573215,0.7576278537450492,0.7348867844691893,0.7213480100324501,0.6937248276681847,0.6547059588896764,0.6003229328113997,0.5408262637640648,0.4797778206657548,0.41257144330735485,0.3512119418095432,0.31626204360995946,0.35998408318957686,0.4293840767685373,0.4916110264063265,0.5626575549496184,0.6319959462895293,0.6937071470280638,0.7202351190006069,0.7126467176757652,0.7024290969837088,0.6969025091327883,0.7023422760747713,0.7149633010094436,0.7274380518211712,0.7295239362984052,0.7141312820277577,0.6982132815101938,0.7228015729240993,0.7526215455002099,0.7611625043407528,0.7454519771046393,0.6696655791543356,0.5790923745378682,0.48904716169107765,0.39953852705434145,0.30444579953446205,0.21353558681292983,0.12477624730489278,0.03344301569619601,0.0,0.07492614139116949,0.16298018089984811,0.25453955560672403,0.3497444495359807,0.43802641350324545,0.5180910608929477,0.6045150978618818,0.6971788407723916,0.7793510420154295,0.7636900186542916,0.7195425085980158,0.7008860964963046,0.6811966785522092,0.6480496803481532,0.5958395648858923,0.5336255213499856,0.46993094350083897,0.40078135256493175,0.33243681347146214,0.28478119708645555,0.3038765368409373,0.3731702287124534,0.4483502899287801,0.5214317686139902,0.5961320710156004,0.6676581658671596,0.7152896752895219,0.7243748340630864,0.7082287688335276,0.6964559266401746,0.6951907494028848,0.7097395497082568,0.722002128560643,0.7439999568608238,0.7459263676785923,0.7371063278815027,0.7250385273202522,0.7349661841569595,0.748739250936868,0.7585636876037083,0.7527043989621087,0.7158314020809882,0.6547329257220846,0.5856643446213381,0.5116544373132588,0.43588715071717843,0.3644887030910706,0.33040789826336003,0.3780969575648365,0.44593280379206024,0.5141718870155385,0.5800955128662026,0.6388719745550389,0.6849886545565707,0.713436599297155,0.7331714371997347,0.7577621242335675,0.8151156181925554,0.8963399270082428,0.9651047391073804,0.9519942815734983,0.8643365248615438,0.7690508374373959,0.6781940406012437,0.6668296919043271,0.7449593379227095,0.8234639679217319,0.8295759810830219,0.8005327436499281,0.7932600366320748,0.7597388871139799,0.740454762367031,0.7552518653358016,0.7646924072690908,0.7587395699319814,0.7483594345612237,0.7357624296988061,0.7290861466620302,0.7384259195069547,0.7496367683994274,0.7474859836438823,0.7146836730973678,0.6563004519859892,0.5893368557087593,0.5152815265710486,0.4347588818218939,0.38365865346976236,0.41848483150254334,0.48408970105518123,0.5507646813699865,0.6113651762537062,0.6663711165045649,0.709423043470145,0.7409186890983326,0.7616868559361907,0.7847028827780105,0.8487744735589389,0.9286387007824013,0.9808814899122629,0.9344317600678682,0.8444440408428227,0.7571059053055977,0.6718822124907358,0.6760226201537769,0.7624715537708973,0.8427830626207169,0.8550098667685426,0.8225622462520052,0.817351709105907,0.7828167971816606,0.7591157942893325,0.773505328346832,0.781518909345253,0.7712563656177676,0.7660534857327941,0.7531017584990878,0.7485065616577087,0.7577957127895514,0.7742193022453101,0.7772885303649013,0.7562595395030729,0.7092751306870051,0.6450911202491172,0.5741421096148875,0.49456866818942724,0.4176351918440231,0.37444496353019274,0.4178328303432943,0.48949533277252955,0.5562919412253,0.6129509762210494,0.6694298312576741,0.7153730724420084,0.7451132363765645,0.7615581339424928,0.7819813948637928,0.8518370355869949,0.9341568820324415,1.0,0.9739512582447865,0.8873497780992867,0.8004350929883686,0.7067735012677052,0.6218982378246256,0.6377117852016569,0.7254820476488453,0.8119648633408505,0.8610662747958262,0.8323648785994249,No
0.04571953839734144,0.11087875118040813,0.21317482740746252,0.28374194681489184,0.3324162111858535,0.41209853598565127,0.5058253569286202,0.5415829464043487,0.5205137380006026,0.4842631895800049,0.4353652443281768,0.3820891501264958,0.3177481492372425,0.2474473530634822,0.18803945842300873,0.19291705160445627,0.2503732389179527,0.3315801203979962,0.41305962152222975,0.4933150460835307,0.5618419953048672,0.6026163089117742,0.6184270710778548,0.6057053018476881,0.5892026334143581,0.584179510892036,0.5841485272502025,0.5841485272502025,0.5841485272502025,0.5841456464084813,0.5811665890864273,0.5507170589711721,0.5196191320356061,0.5339376607541535,0.5404300512535283,0.5769862796565421,0.5872519998433066,0.6314462492147723,0.7274099377947625,0.7936498991237189,0.731671195990272,0.6376246301790505,0.5284340146729471,0.4185582906354761,0.30959796345486756,0.1919735980054118,0.08663455092656047,0.0,0.031913736049937746,0.14511493383680563,0.263426215072017,0.37082881701082027,0.4683953555322833,0.5180149550192903,0.5017762769498284,0.46395913557061785,0.4149832378810592,0.35610400930684394,0.29644099833366644,0.2306478018770819,0.1696965968234525,0.1622982164455271,0.21337007482941406,0.29523091258192746,0.37686049560909707,0.45540660298616187,0.5214355158731045,0.5730064921692728,0.5772691138951203,0.5534138291821407,0.5467287890531503,0.5537872085323783,0.5650360382226576,0.571474038036683,0.5749196386223545,0.5709975016603868,0.5830575155241577,0.5663013802829071,0.5328792522701842,0.5263640539783108,0.5474566348458354,0.5827236944795251,0.602830420603834,0.6242789040063181,0.7091282120862363,0.8089053610329766,0.8215330903430962,0.7366786816654649,0.6268842835090442,0.5210502458851867,0.40758319790609354,0.29174513496294097,0.1883888926852344,0.11257322044030049,0.15508459851758483,0.2519615820408583,0.3390150683725839,0.43607818776898144,0.517640652596354,0.5111348154544784,0.4708235252982762,0.4308562466174295,0.3773073610742417,0.31151550952420415,0.25176499811527187,0.193019354665672,0.1617822098711046,0.19855092645511307,0.2667548322608204,0.3531613783465892,0.43668214143186956,0.5085211711756106,0.5571004810588671,0.5645952572479547,0.5517672552794735,0.5474421598437198,0.5613401954168258,0.579584991603824,0.574987625843101,0.5640824128309809,0.5540646038402155,0.5636564017713952,0.5452583792076764,0.5122480675929708,0.5054359729507878,0.5167627241430672,0.5427780658971928,0.5550597368507137,0.5713624539759676,0.6362298319933664,0.7257394601587337,0.7037528840773257,0.7144348562474456,0.7899362686752314,0.8730648947922401,0.935699473437773,0.8913241885983716,0.79152971567617,0.688754643124116,0.6306515688785259,0.6092868038435526,0.5893925753390152,0.5685156574465089,0.5851578901061116,0.6091994911886993,0.6104361120194102,0.6116763590998908,0.6254005941040246,0.6291076343941451,0.6210263375765517,0.5974955960500208,0.6025558496531986,0.6166126236536233,0.6267296078150246,0.6052919746949335,0.5585759081582271,0.480708915998445,0.39420337876637435,0.3166775499872245,0.24476577487868179,0.24794294518728677,0.30820645578507344,0.37265043351337823,0.43148817486273217,0.4829558550484232,0.5229934591893439,0.5620058080318442,0.571975469875289,0.5459638138189677,0.479539935517165,0.5382063141715299,0.6444522836007005,0.7531963516284104,0.8429816145169089,0.9204591534740549,1.0,0.9817238720180983,0.8874591101900999,0.7831535360019881,0.6921002082489007,0.6596075020408949,0.6373941437486486,0.6200663907192769,0.5918100935363646,0.6013565299762975,0.6278697940663718,0.6292118580315851,0.6292125106506585,0.6292125106506585,0.629175221117273,0.6229870256558305,0.5972644230940318,0.6007389507093088,0.6223433291971743,0.6286725811664899,0.6126270624905721,0.5606080827527378,0.49499681355658565,0.4124387417162647,0.3245847208924322,0.24981906291972633,0.21671131926985376,0.27423002777329186,0.3403525700115022,0.39976896452542876,0.4587047455083493,0.508059695555656,0.546069837874509,0.5699473448686248,0.5639524870963322,0.5036736450670323,0.510940379234134,0.619597691952654,0.7184297929567784,0.8089933594602243,0.8946566138689365,0.9751065834655321,0.9641437491967357,0.8709221769548652,0.7670610304376551,0.6733808830809136,0.6375349698756168,0.6379331563709214,0.606683686128374,0.5977669316047796,0.6095881841863764,0.6283399994511307,0.6292123730267769,0.6299403284580309,0.6414681206436272,0.6367021711902763,0.6357659853447322,0.631231825531843,0.6464990922471743,0.6628954665009306,0.6661694888369754,0.6523048115640195,0.6161427807856352,0.5496107048793393,0.4743250489162807,0.3848268816635301,0.3017578165026591,0.2554008523410243,0.2959162744910411,0.36711181397978,0.4306994107517812,0.48667774468910885,0.5314703595494805,0.5688289521194854,0.6024396931691496,0.6054348060717833,0.5620553169561271,0.4967725850166169,0.5572434880218018,0.6305335267980361,No
0.8102147313880554,0.8133303157747307,0.7929825239114723,0.7850700756831708,0.8158934597614775,0.8409473372217977,0.852261466615762,0.8117851424206519,0.7420888817343188,0.6686387928463979,0.5919905425696388,0.5153148048474407,0.4410176620334112,0.3701200122674331,0.2938497327771089,0.21718191647406604,0.14323765965721458,0.07222347250344952,0.00971975305634909,0.025910135483022567,0.09233956736407734,0.1671185056657135,0.2437177501338178,0.31647565724177307,0.3886866203420374,0.46524777159364805,0.5419421468212506,0.6176823972334298,0.6880425168937847,0.7633833751985353,0.8382992469007047,0.9037097937548912,0.9084407220224775,0.8710435170998596,0.8484427388438418,0.8251532435336368,0.7939442559443388,0.7598175320743563,0.7333673800018468,0.7339029761348466,0.7667335176606762,0.7974416225590555,0.7974325819630153,0.7955578899722644,0.8002292460979634,0.8066959338762916,0.790455453588008,0.7747879020965867,0.7957197108137004,0.8300176503245595,0.8407099716477369,0.8013123999521199,0.7324984815054074,0.6603346257019522,0.5890579290469524,0.5132440144826924,0.44264574892065545,0.3678896603319979,0.291224962569981,0.21686757092716502,0.14601508328037616,0.0697840269754596,0.0,0.001933575327008441,0.06760455856097469,0.14359532395931307,0.2152507275635177,0.2886122691737333,0.3652572869472598,0.4419527918228099,0.5179128204769756,0.5883659286006846,0.6634060355313935,0.7399788629603652,0.812417601612597,0.8832490321248891,0.9106181200255883,0.8703637937782254,0.8420727989024135,0.8168169047552549,0.7860182642357314,0.751900647721853,0.7247567326829039,0.7238785943000487,0.7581628038525245,0.7907959662521353,0.7981408180887255,0.7949144759288134,0.8019560592883113,0.8183085374517762,0.8243731507086576,0.8081386086776292,0.7966413012016678,0.8155581151432887,0.8407851837034799,0.8351677538761286,0.778624995354815,0.7082497722490739,0.6378791899560292,0.5622981594495136,0.49140652388090156,0.4171134377505561,0.3404485573546032,0.26562781139147396,0.19505772001685384,0.11903615372458132,0.04771722313410276,0.02599762689381191,0.08012386447853359,0.1550382361338155,0.227997162754359,0.30001333050613277,0.37654817585443134,0.4532448446472863,0.5299415134401413,0.6066381822329954,0.683334809367695,0.759779168843699,0.8312124044958209,0.895835426107394,0.88918535136174,0.8520880567488978,0.8283217044121314,0.8057706226674435,0.7794208218884486,0.7501606467490844,0.7392572616689748,0.7588251609511512,0.7956754699722264,0.8174134936589055,0.810799522066395,0.8031318142025625,0.8135345657461042,0.8264380630282713,0.826079584724128,0.8041640073061218,0.7975877407281449,0.8225214595252566,0.8440672848574653,0.8309514896955492,0.7712071114076995,0.699652301245302,0.628920744040222,0.5997225144035889,0.6607239016186666,0.7343238510126642,0.8055866131354201,0.8720659314693833,0.8793672624760862,0.8661330715593791,0.8454384450928767,0.8233013001096405,0.8398381326855497,0.8572559970528952,0.8520219408117218,0.8390177484521664,0.8329648792567457,0.8369465266099334,0.8376633573260652,0.810964425808544,0.778173077670905,0.7704178669628461,0.7984389815577095,0.8256712019806585,0.8483767070889388,0.8713560703082144,0.9122585959310983,0.9655617775022467,0.9796870643450764,0.9226274251268805,0.8519571893171083,0.7805330000637754,0.7051435572196731,0.6358191013149126,0.5852835841967508,0.6185419867252893,0.691000453819264,0.7616872079077159,0.8311460322367412,0.8849716593652843,0.8763441309420041,0.8644086692131334,0.8416673506267409,0.8275599100282631,0.8444827052770272,0.8494600176846367,0.8406708040582704,0.8222202071139728,0.819542245308466,0.825296223042038,0.8146682504910832,0.7834912670324792,0.7523381441291404,0.7623347724237965,0.794875121624897,0.8283978922543265,0.8537565795899067,0.8806329606413417,0.9207545719727919,0.9754666936459742,0.986929072912528,0.9321641009086454,0.8617085800046125,0.7903738109939036,0.7143369673393007,0.6433232702566842,0.5693362163513289,0.511968372893006,0.5475201995353884,0.6225101382161766,0.6991920697715945,0.7739939057219727,0.8426571590443364,0.8836603854965994,0.8687785156901771,0.8539730712452989,0.8241756095648731,0.8143549131130225,0.8355495367704353,0.8328028570146075,0.8217602576304852,0.8179926031349296,0.8230277036473859,0.810491071936555,0.774698762743713,0.7582598766650814,0.778380304193051,0.8127665360769094,0.8439788538667552,0.8680961250784061,0.890030227288015,0.9310365456866481,0.9775845438814892,1.0,0.952316537056145,0.8828271970724229,0.810294510313339,0.7378750699813943,0.6654236003663707,0.5888372315185602,0.512632639961655,0.46834735323818677,0.5175193916500305,0.5926007987909301,0.6633351573825621,0.7371464663126681,0.8074616218113484,0.8752254902223879,0.8962075972183212,0.8743905307969233,0.855180627793926,0.8240213635588338,0.8189023063184304,0.8375896157968292,0.8355888489588821,No
0.4793161775414629,0.49305495225383605,0.44603826477143654,0.3852485130017527,0.32730104820155387,0.2657108326218505,0.20663422832229578,0.14846819075323442,0.12044913545504238,0.1626434591542933,0.22078437128458855,0.2827399807668031,0.3449149557083397,0.40628227924321586,0.459083776882426,0.5042779796672019,0.5637609811112716,0.6259226564775577,0.6875652956518774,0.7454659646226476,0.8064451776194921,0.8590846342636806,0.8392344129115845,0.783171648952196,0.7289396708048508,0.683494070046476,0.6524972067580497,0.6389820512940132,0.6232031805823994,0.5959729918867482,0.5616121195504753,0.5350472864229536,0.543118409101679,0.5772428371033054,0.6077971594293343,0.6298905604840519,0.629041944228067,0.612728914683119,0.615459557271397,0.6329671151867491,0.644064208987263,0.657936674315202,0.6685860098604848,0.6760936641499733,0.6615075839558948,0.6281248654564635,0.6079436590451328,0.6084858958867052,0.5852329794049922,0.5298410119664965,0.46819588731855905,0.4102136870151459,0.349370423808044,0.28852829338340574,0.23054246076178092,0.1688136677143361,0.10699213611629493,0.04941628126747771,0.01208172014452763,0.04677592205545661,0.10634191102095125,0.1646511775471295,0.22656225186929152,0.2887394100728949,0.3506127619553239,0.4088310408302393,0.4693133400242612,0.5314738052646031,0.5936514220193279,0.6557095850209633,0.7146776452651573,0.7735036156471176,0.8016745910045486,0.7556038162044063,0.6999690733668835,0.6499100191424934,0.616841492214822,0.6080685095399958,0.5958627632528095,0.5681399346172504,0.5342462669159658,0.5053856321139363,0.5124391853924259,0.5456695223399675,0.5786353666458752,0.6055712612508029,0.6133707662173231,0.5987378753410042,0.5937037506392355,0.6042700661246199,0.6086473112488442,0.6066078629718423,0.6038188151668857,0.5938504935663982,0.5860637932388775,0.5988383086037288,0.6033325469874462,0.5752505902087075,0.5190037612752012,0.4570386931114609,0.3948728174162252,0.3341748789361025,0.2761025784847119,0.21435203085471394,0.15462054688460652,0.095790746051171,0.03497299045925367,0.0,0.03481154041769968,0.09500177875878851,0.15715789419879683,0.21806786075874213,0.27601996511926413,0.33772327013981235,0.3999000518576838,0.4620776734801561,0.5241856579974782,0.5836163907763403,0.6427340297996889,0.7047705110172917,0.757481375269571,0.7392699370623137,0.6840128981241436,0.6365372648542151,0.6371819401227141,0.6666272871182244,0.670537928032588,0.6483124022377673,0.6140307346459575,0.5792450754873784,0.559919291283711,0.5802602138153146,0.6123535678654906,0.6375675724420076,0.6419876866262653,0.6295398032626438,0.6252522863977994,0.6411628924662158,0.6467605506169178,0.6584007527986022,0.6680575128564092,0.6562858038014161,0.6299807887668158,0.5978628136024655,0.5931530853802667,0.624903088905872,0.6606788028144146,0.6925933876366648,0.7054831312869503,0.693282865491964,0.6670067287757198,0.6846697226639384,0.7409489467557862,0.7987515942669181,0.8558595409775196,0.909633971639646,0.9301748459757333,0.8844290239552774,0.8252022903743097,0.7662802064271326,0.7042304887506117,0.6430474250216784,0.5852004472438512,0.5236676742510156,0.46149175544752746,0.3993778207803042,0.34862973824361104,0.3701962226507404,0.42871406285639807,0.4895178079242782,0.5436597339482176,0.5917284189479393,0.6256331786901608,0.6251911812308113,0.6125986879695591,0.6093786270464803,0.6221656916876162,0.6260640855664101,0.6281652863754061,0.6290461852520872,0.6199838342398885,0.6102395304541055,0.6247022410673413,0.6361046089087066,0.6228053910782039,0.5955718779882924,0.5624785554158926,0.5319917591010326,0.5434379760424024,0.577746854421425,0.6058297632134402,0.6243295343119386,0.6324743852212975,0.660135175776982,0.7103929413750825,0.7659789569379849,0.8233987434822021,0.8807210012081803,0.9360730912431394,0.9553316256820681,0.9089317354224404,0.8532588700253636,0.8013046843166756,0.743629376089934,0.6816796484147465,0.6195021304866175,0.5574071525480149,0.4981413177259368,0.43886303125537324,0.37741928743628733,0.34743059367862644,0.39491486433189765,0.4533829697686705,0.5127932772856953,0.5702241172866978,0.6192745605001169,0.630178582888292,0.6307158346026447,0.6573435133807786,0.6867343383634175,0.6969129099179827,0.6890163250839509,0.6780387354806159,0.6669246161950713,0.6513224057327545,0.6350511800297438,0.6395411241491782,0.6553385913964365,0.6495816857291825,0.625209532791331,0.5948906148940427,0.563115983056147,0.570300986912357,0.6045374435291677,0.6344016132558858,0.6553065306715633,0.667896745981494,0.6864434078815567,0.7269837744090528,0.7805293343581221,0.83757017911546,0.8959914515516905,0.9517347163277181,1.0000000000000002,0.9881851564613096,0.931505585074438,0.8729461778562306,0.8110231034174933,0.7515526451426151,0.6924737587956526,0.630437255300635,0.5765436787274474,0.5874550704028816,0.6397251749065516,0.6812353005225043,No
0.6127688112113694,0.6229580061903535,0.6159089850462991,0.5941677023194829,0.5891893635816394,0.6027804786842241,0.6413414969516225,0.6437063897765276,0.5756348284965782,0.48994625319865603,0.40072794329200456,0.3100203231732386,0.2148817020060816,0.12323517839851328,0.05205578205236239,0.08868095818082722,0.17912667984726993,0.28028970053133584,0.38212138888251945,0.4835820257253085,0.5775210613840234,0.6747171120525397,0.7694373656375098,0.7963207625670015,0.7240205876273083,0.6508791093678317,0.5972062949210819,0.5701554881863362,0.5408394534934795,0.5017287431305155,0.4440566923992961,0.382382381145151,0.35075695293110853,0.38136527746165405,0.4465836007024855,0.5130911763031165,0.5808905693812589,0.6235905107108433,0.6323525524147644,0.6156884962860778,0.5993557569907251,0.5937798316298439,0.5981626337420856,0.6120592041377815,0.6171353256607526,0.6077314232371924,0.5937392132158068,0.6126732399942496,0.6529568569652258,0.6438857598543188,0.5722537636408191,0.48765549559098,0.4119376174359377,0.3259797140210432,0.2318409244056443,0.13757298100290605,0.054945505812248996,0.05942295977283951,0.15287813984922627,0.24641040447612772,0.3441103025023067,0.44296359105860805,0.5356966498439724,0.636624417512383,0.733359030565371,0.8240295408318803,0.8418725065749817,0.7643469068599378,0.6849408738612952,0.6258982812902694,0.5917273008264556,0.5589231995943151,0.5205237620354526,0.4669924442297906,0.4089052002399667,0.3645640144849698,0.364444847025295,0.4166884557447461,0.4844936586143729,0.5580937021612942,0.6169522847888687,0.6473926312179554,0.6490944589598409,0.6300515049465722,0.6089000706768004,0.6069525223639951,0.6088312078427831,0.6234133653371539,0.6379904083802586,0.6249732825716163,0.602309155954704,0.6217304559545449,0.6506067318800446,0.6698071195673012,0.6144780071694591,0.5292662517379505,0.4373835268961084,0.34542953492417094,0.2531494207656726,0.16013547132275185,0.06333224196795895,0.0,0.053428996083480396,0.15031401868499228,0.25141445332204815,0.34438171653896354,0.442692454789712,0.533025993230247,0.6121022851264832,0.7097463976407521,0.8065511763496389,0.8358952008189167,0.7638529239395513,0.6807676575673465,0.6208932417842246,0.5864539630556067,0.5563626667694359,0.5143119268831546,0.4603638910850256,0.40177093792590957,0.343807783800804,0.32830155343404055,0.37794419195803863,0.4547991702978149,0.5253848943154018,0.5867376912810516,0.6263533883820716,0.6464927635240916,0.6383188385509573,0.6186373846567508,0.6145237437153337,0.6159840789810429,0.6257046404949318,0.6392405991602683,0.6679128674718744,0.6626553275337261,0.6569328343292307,0.6528546331882532,0.6596188068208677,0.6781341762846351,0.6893307220917786,0.6741533260722565,0.6457817122825016,0.5975273795684723,0.5299585844291881,0.45660282358336457,0.3907840998760943,0.3919496658009127,0.4523886273429554,0.5081919908535866,0.5583261124792391,0.5978750773664878,0.627377574471853,0.6688001381203386,0.7308575266040125,0.7977539915405731,0.8852683292569863,0.9731820009256247,1.0000000000000002,0.9333318315163475,0.8422936489032324,0.7420810015017205,0.6450381742531903,0.5509140613196342,0.44964329109554035,0.3769259776754543,0.43519137899629223,0.5347082689986788,0.622793561971325,0.6927460066651367,0.7174843510907738,0.6947468317414718,0.6607188550476455,0.6555110731037355,0.6759611330138455,0.6704269226556872,0.6586472964217507,0.650352046014081,0.6473754605038586,0.6634233573225272,0.6808498175389925,0.6901149231659909,0.675171363475547,0.6391423583156628,0.5759154587772677,0.5082828469455689,0.4394099383557728,0.40837337104866833,0.4486257074370392,0.5041047250553039,0.5572111061495886,0.5935400714709316,0.6260235059201944,0.662065874137139,0.7304639250325813,0.8142427592496253,0.8970574692221189,0.9609729893869166,0.9461420216532177,0.8753611690760994,0.7764104635880067,0.6746651760646059,0.5779432945382077,0.4835212156342312,0.3828745353843743,0.3323665824016273,0.4034523423987153,0.49528738298004105,0.5825942673154347,0.6615430797057844,0.7047772647011044,0.6940216953350136,0.655608033377898,0.6345321824691668,0.6533177539094555,0.6640275317784636,0.6575610214752798,0.6459722882883077,0.6352747460237731,0.6457533493081498,0.660222605237667,0.6701285740729606,0.6659681010502891,0.6264958974074333,0.5642269990631801,0.49896854680508906,0.43283497775405966,0.4048236837418797,0.45675901367497795,0.5137122724824426,0.5599839541249694,0.5937832325603527,0.620077173727646,0.6618629396186735,0.7356613943923975,0.8176896342311271,0.8990768469463382,0.9385315739924971,0.8744974224517865,0.7831842648678065,0.6853024464341686,0.5929831459271908,0.4925626800594476,0.40877587298489226,0.43128684382489046,0.5056078041338157,0.591040963582566,0.6623773659333383,0.6935916990104032,0.6750026144970087,0.6401779677477102,0.6445208010695469,0.6582138430563542,0.663323437808774,0.6556797329370816,No
0.3378395218765875,0.380505313159728,0.3563445134021026,0.2695070953797789,0.18523744511009088,0.10062358068560817,0.07233602141216,0.13966397722160884,0.22352697555074585,0.30673693140998326,0.3670224262115782,0.4431582824894982,0.5342344022091776,0.6268128314804451,0.7193795692057052,0.8043879708318669,0.8014479130964782,0.7403430030890998,0.6979122976795007,0.6661029368924793,0.6410308728100758,0.6082479330334951,0.5612654311141603,0.5044917041162196,0.4456238833953916,0.3911750469998505,0.36629736233480936,0.397972665257589,0.45917626883807494,0.5278609962129981,0.5854467812678508,0.6357683040595652,0.6681643905730701,0.6639025642871528,0.6536596580430372,0.652915043467803,0.6647532501076574,0.6769007839666674,0.6866005994664417,0.6952288753853479,0.6883614223809353,0.6738381688404498,0.6741678823184463,0.6878867308006953,0.7167950634128646,0.711417699304961,0.6393077458434131,0.5607326618411819,0.48873446788652086,0.4060786323398624,0.31885227830837115,0.23317695684823936,0.14952166659361366,0.11976468621306968,0.18516382370056306,0.2769663646093212,0.36814523279616096,0.4522314064340025,0.5431941859844267,0.6312517774347688,0.7172181173913137,0.8037419667330543,0.8093309687195862,0.7510271193158318,0.7079764613494073,0.6858135205542155,0.6571274286925006,0.62369447489411,0.5736039329345652,0.5174378160614923,0.4574153898020168,0.41009702735633136,0.41063985756016197,0.4657845543313981,0.5296377480214609,0.5927988226766174,0.6449795089112946,0.6775893026134461,0.6857127578174251,0.6762375242278884,0.6680660443385207,0.6836385137081817,0.6969164982716176,0.7007030471295872,0.7003012857995556,0.694476666143166,0.6712414643972282,0.6636526473573279,0.6742333916853702,0.6913031683572044,0.6516526625735921,0.5723205404969165,0.4847617150444534,0.3994849327806991,0.30923685480924856,0.2250584718780999,0.1343986981510914,0.05099278306864963,0.0,0.04841130892755685,0.1361883652732616,0.22872424018730064,0.3213060183126084,0.4134434747825866,0.49852476611034335,0.5876286188009927,0.6798912608128038,0.762204987119186,0.7764879014515762,0.7223808364390765,0.678165707526845,0.6480534136330034,0.6190137466139776,0.5853343888412756,0.5354850822088257,0.47728040705337427,0.4177412656796078,0.36116146357254175,0.3272093702255203,0.3545681762101318,0.4185492882659001,0.48244877333325054,0.5421486048897743,0.5996323124264136,0.6512944404242922,0.6571307547361938,0.6458197990702537,0.6346794798303967,0.6364907081642337,0.6467169229203791,0.6584438575579339,0.6597125877442629,0.6812856468636692,0.6906860730816955,0.6870336609070422,0.6739070070130009,0.6766010624305256,0.6903067566427454,0.697052720536947,0.6794261857127626,0.6300204362374309,0.5723280076592492,0.512844685544309,0.4437031872702293,0.3843983803940667,0.38422890400120124,0.44160948520481424,0.5025487221958849,0.5579812154050818,0.6075655445067591,0.6432678891354757,0.6728435142958888,0.7039021882201282,0.7455487933798004,0.8125235487464313,0.8893874028821165,0.9599564052051013,0.9600692000853999,0.8770701385388306,0.790503966009757,0.7031162507361841,0.6108466399585917,0.5245294989534623,0.43686655520019757,0.3529604583469983,0.36339411989113146,0.4497138112691428,0.5341715938026865,0.6199985988409691,0.6982904441742575,0.7336571211891103,0.7225652384697625,0.700984684738047,0.699772326771066,0.7173483876848088,0.7321294163309506,0.7343183234643116,0.7361448058002691,0.7275268439386473,0.7191603730882037,0.7073462578098413,0.7162288308857332,0.724677727093346,0.7164802031421638,0.6844491741354228,0.6393288964336741,0.5796190881852263,0.5095608580504458,0.45133055453246507,0.45265569609665546,0.5103004302604859,0.5695658615299579,0.6228279165695803,0.665669732561238,0.696203760620862,0.7228332191639069,0.7485513574727276,0.8041769773010048,0.8759332645492977,0.952052763302859,1.0000000000000002,0.9496761312194686,0.8583451318289848,0.7680172840080084,0.6837136751231183,0.5920446056091013,0.500502172513474,0.41861116144375754,0.3976718939151813,0.47501114293262536,0.560596300827233,0.6457945104966603,0.7252644273112998,0.7631377101614472,0.7509984753181163,0.7243756905448298,0.7101848905706134,0.7169086476218596,0.7248482622289916,0.7234713842293723,0.7141151040624478,0.708705702474014,0.696224440189458,0.6885751508087199,0.6904826302742901,0.7004309659671839,0.7051902599542745,0.6753613071802753,0.6288021680788711,0.5735697110358466,0.5070002766590973,0.4431307706519405,0.41913822787410915,0.4676140834057996,0.5263408201559701,0.5788766914855905,0.6298472405626789,0.6646132974013039,0.6932886412818418,0.7197390384993354,0.7627041220275119,0.8304277675570984,0.9066759743013393,0.9749930442605586,0.9647224578916174,0.8857429877622958,0.7943126597492769,0.7090267364114908,0.6201722498601643,0.5290183188862463,0.48953857027866077,0.5544355605338367,0.6379590888569593,0.7156078950240987,0.750925892767125,No
0.8094506658923721,0.824042526113131,0.8420796142561398,0.8224593379541942,0.7574648010410174,0.6853967208951861,0.619183144372206,0.5418205404404747,0.4654596934615415,0.38504025347026993,0.308192380285383,0.22863397805091568,0.15052316179824066,0.07962347110715662,0.08084981550396031,0.15150817671070715,0.23243642629766792,0.3107724661341795,0.388747659410681,0.4703724137224,0.5517317190218289,0.6285763194450353,0.7082438056456231,0.789933522989678,0.8683881542421987,0.9083704447135201,0.8583646619604168,0.8000403254548065,0.7671922847548762,0.7343559861962514,0.6901177304809105,0.640108647476944,0.5838368070223856,0.5276916985931223,0.5021176746091243,0.5420409086757975,0.6040438581325105,0.667896462913387,0.7276102939903903,0.7734499902801426,0.7793013822056525,0.769159160057244,0.7687286831555769,0.7810974553705512,0.7986720288674163,0.8008932197384167,0.794226191588127,0.7787219111156825,0.8005352031568242,0.8216084405208974,0.8030587813166137,0.7418536164613931,0.6629939316976832,0.5851440548451714,0.5182378719871793,0.440869677251435,0.36451970521290755,0.28386601144169143,0.20491463967778334,0.12759449646279164,0.05135552836673429,0.020996103076438455,0.07720851641359638,0.14324720948021674,0.2224424673132004,0.30410308511975437,0.38260794687229993,0.460427218272083,0.5420292918333541,0.6237774746028271,0.705525657372301,0.7872578692551251,0.8665365199165957,0.9090977509695646,0.8617076143716516,0.8008183983994912,0.7592176408626341,0.7320169918380766,0.6911516692739335,0.6395552577875692,0.5799803214502561,0.5275903058804927,0.5008785966799217,0.5388651908109993,0.6002156771001985,0.6697101086982082,0.7306359706603731,0.7751497710065456,0.7863103416125508,0.7764403916427214,0.7784187769597313,0.791408738765558,0.8054912315543763,0.8096917107985098,0.8104845133592022,0.7977580819074364,0.7823329786259512,0.8069716491330874,0.8225918936367873,0.7944168979763258,0.7237261742458796,0.6488928549870909,0.5718028037559821,0.4942076285942789,0.4135158274721996,0.33712358636028317,0.2565985597069569,0.17801909120601123,0.10047627363308897,0.025366030160695052,0.0,0.0642498400922259,0.1457869472565244,0.22753513002599746,0.3092806271429074,0.3901489340232017,0.46654490166191176,0.5471381459340567,0.628874788294804,0.7093395255172317,0.7857657762781722,0.8654756398926096,0.9010622510425357,0.8496497467338482,0.7947351755875987,0.7577013678899838,0.7248810671461638,0.6812890404628968,0.6269329997951194,0.5693745766297844,0.5168530431817818,0.4948740315106036,0.5363770677719094,0.6038173075376048,0.6700958461671538,0.7292577484470026,0.7748564903542037,0.7907141082641314,0.8063787789474532,0.8004728321220633,0.7609134205994728,0.7038326037027287,0.6369795716234852,0.5719852430949575,0.5323552221008563,0.5679892065511605,0.6251620893186776,0.6794131846086247,0.7272176280779443,0.763069532778176,0.7951582227946126,0.8460737738569555,0.9112022952066086,0.9741956561881715,0.9798839773288401,0.9094685383640277,0.8282862116243943,0.7515823548318783,0.6720187991042117,0.5982468486115664,0.5246650703022082,0.44918611003258835,0.41230820360602416,0.47125129833598145,0.5504703937989175,0.6266247426606015,0.7028668137948892,0.7772449624648912,0.8355239827536578,0.8435253383365853,0.8267084171738821,0.810820446047068,0.8282297970501991,0.8329248620084768,0.8275414692824961,0.8205238618000399,0.8065724343608227,0.7986744743154757,0.8049689626193892,0.8054936420524164,0.7763033125063183,0.726726994785367,0.6691884545751949,0.6053652628838566,0.5467937134100291,0.545145704978935,0.59679007730426,0.6534510436418368,0.7067348818048471,0.7478018222645955,0.7762293041866464,0.8174415249133382,0.8797790612685228,0.9413653107531261,0.9674321808469206,0.9174106432576479,0.8409577343065311,0.7617220317716868,0.6847261580043866,0.6033124375313639,0.523012713829487,0.44653834041421914,0.36568098202001154,0.30774738637996535,0.3537533540984945,0.43208420613038434,0.5094369786594799,0.5875440023267222,0.664433713377117,0.7394729976708421,0.8085365926429384,0.8435225452603772,0.8416283682992902,0.8171124942869081,0.8099006042047061,0.8200066783728264,0.822604032344761,0.8105698019873879,0.7978611322780356,0.7877294762583706,0.7962181914173181,0.8059664751242936,0.7895497635160613,0.7432488946453168,0.685119528059575,0.6213918799099039,0.557453207756345,0.5452381337862664,0.5963073529162193,0.6548695216078071,0.7047902900970127,0.7486846028240959,0.7823596853024388,0.814456297864601,0.8702515464359175,0.9411135856752197,0.9999999999999998,0.9825172665766855,0.9137882682435352,0.845000341926655,0.764534841419344,0.6877147848377545,0.6080106458554031,0.5262838947668946,0.44672773970599733,0.425116252350609,0.4945039415601181,0.5709539760240783,0.6500617038609302,0.7259641025459327,0.7992044514456098,0.8529104609621134,0.861975632824179,0.8492991911295615,0.8406373916831984,No
0.9291104081440309,0.9108274727125136,0.8989077144678983,0.9131706761542069,0.9285870267286724,0.9370406051915117,0.9320173654728268,0.9212624061005639,0.9542089148320831,0.9647672251113741,0.9057478934583034,0.825846085074353,0.7413160212600898,0.6605987946444705,0.5759173051761295,0.49019261344378323,0.408863976633328,0.3251929841188968,0.23918768128339712,0.15483767714760582,0.07408099473347662,0.0005585706418948511,0.011370040756492061,0.09189077367951182,0.1779236339644265,0.2638452830467634,0.34610105095983584,0.428715332055089,0.5146733838983941,0.6007228906470687,0.686730967979198,0.7701304828033013,0.8516075922145696,0.9261575876975277,0.9340357911195591,0.9060538935214006,0.8629425942188527,0.8075266588157435,0.7423052991597432,0.6730425250945375,0.6072040792162368,0.545770553789038,0.5219607214840236,0.5697242214907752,0.6397350860642925,0.716537490765847,0.7875430506094654,0.852709063291593,0.9137362417268646,0.9458765672851366,0.9253197907073012,0.9171805533952839,0.9387963854268662,0.9557155328962876,0.9578742490498235,0.9406755285124815,0.9277809993648951,0.9594268868988864,0.9593862838868066,0.8921748291410208,0.8107851700284379,0.7260248296854814,0.645372464697797,0.5603614464567219,0.47730312126473046,0.4072968814932662,0.34878418344422163,0.2912054863871046,0.22643833164639088,0.1477577031601664,0.06294203286604444,0.0,0.0347627216799562,0.1190396160928689,0.20508572907221473,0.29033149996754276,0.3710264321163274,0.4557946181644886,0.5418376884728229,0.6278143293678082,0.7106525611464922,0.7926919456741071,0.8766096341903609,0.9169035095125864,0.8935180317261924,0.8558996091215108,0.8041196801725163,0.7449179305305091,0.6768344804273032,0.6085008014861444,0.5417918729894919,0.48262141051015633,0.4744977252555829,0.5316392433701111,0.603602620720316,0.680033637350524,0.7440441652063456,0.8129627353678359,0.8772370561226224,0.927933043322503,0.9325495324705892,0.9149460091223551,0.9258037217002266,0.9428863508609249,0.9505493470909498,0.9541628844286851,0.9350680481501588,0.9352912790052048,0.9669177425313695,0.9487016094021687,0.877651254376868,0.7946724479361931,0.7120389246440217,0.6298529552320682,0.5443642411952774,0.46329149211047144,0.3792694803492816,0.29324048822232424,0.20719098147365006,0.12116641100162856,0.03988241272901433,0.01698306325298221,0.08320197251671874,0.16854822692243726,0.25418665679408553,0.33528337736289765,0.41926852278019816,0.5052973174807689,0.5913012622928198,0.6746051565083209,0.7562305716456739,0.8418365607803291,0.9108694109352804,0.908832001453429,0.8747575725707386,0.8297559585934975,0.7704759750927752,0.7071038617806975,0.6412128369853081,0.5721749447832836,0.5060685386598991,0.4761847938643495,0.5133050210517085,0.514595135522186,0.5495539025559413,0.6157179686366736,0.6864602272913911,0.7518315605612857,0.8120911189716471,0.8658056883100613,0.9062939890382258,0.9378959617845066,0.9656399588968849,0.9390243106965703,0.8632283542540307,0.7802815511080115,0.6984896087236414,0.6126401339442384,0.5265909591536893,0.44211468865573383,0.41056570063326486,0.48039482510551484,0.5609774809262635,0.6461087893636828,0.7307856150483019,0.8115066090024703,0.896720302565726,0.9728820710654795,0.9941623621959861,0.9832346895138759,0.9583528242626973,0.9716710296702173,0.9739729844155953,0.9660004252067229,0.956938106159646,0.939621185460138,0.9478919186867609,0.9602637087648509,0.9324576933740498,0.8766979926667062,0.8100200074030177,0.7367985244621171,0.6722736804151479,0.6003532570338501,0.5316911890052181,0.515846296701582,0.5740088197113904,0.6407118906183431,0.707037556923164,0.7730654488262596,0.8325148674332192,0.8801433593157411,0.9173386817629354,0.9497161600470523,0.9699846191609798,0.9099935247839628,0.8258530209976429,0.745116260357287,0.6597816610977087,0.5737956529037207,0.500398639159344,0.5228587690533852,0.6056376208467471,0.691220190426457,0.7722295077456895,0.8561328707405365,0.9367977934352365,0.9911942308293649,0.9884473169837984,0.960752330031678,0.9654221910487417,0.9787436220702586,0.97658261540381,0.9619861882083072,0.9426059395905542,0.95575325664887,0.9722064135984188,0.9437315928451044,0.8889424062018252,0.8226767469859015,0.7508781545612233,0.6792401938129649,0.6072365872510423,0.5613353435226467,0.601788483172708,0.6675438944086374,0.7322041457649839,0.7996071994360998,0.86136568606921,0.9077082982889537,0.9431353127363891,0.971726292057822,0.9838647857012872,0.9188251207790441,0.838385794549457,0.7531910004385143,0.6671439966709969,0.5814010183824725,0.5222996769361563,0.5724004347045126,0.6574869358403286,0.7386655904261921,0.82242568683139,0.904700838130621,0.9773960906004073,1.0,0.977930073930497,0.9534703562618856,0.9603833057810145,0.9574392327390757,0.9483079160968286,0.9331108163210158,0.9203044928382236,0.9374116803901733,0.9537627956512869,No
0.1011621715063653,0.14808117023497036,0.16594293258608506,0.14280759916641472,0.11944009355149443,0.11760478798786567,0.08706193598983014,0.048472311050142824,0.017995775774899858,0.04716354898595276,0.1034124980172424,0.16648507386239242,0.22415329344770019,0.2691943675930146,0.2896784476635257,0.2843006611685246,0.2852001378369555,0.292344997523579,0.2994258988822811,0.29873475180981957,0.28123540386018187,0.2853087721574792,0.29841720926700455,0.262729974717703,0.19399116041491138,0.12219707227344301,0.05372832881941869,0.03870695208391195,0.10010067687796398,0.17289683282839285,0.24639958600826195,0.3231316754913609,0.3999304635790044,0.47323502857676436,0.5301941063846982,0.5848581583286809,0.6416009569745598,0.6915311123752563,0.6795337306810074,0.6083067397661568,0.536151268308591,0.46378909456163964,0.39065100444862844,0.32482300102516737,0.2746935828776844,0.24153250838669016,0.2090890574979818,0.1602871975687603,0.10632866647252248,0.050868185995900594,0.0037098748640551626,0.010959660491596912,0.06664153174551068,0.12754652080770357,0.18760153793957723,0.24123313428787596,0.28185162757731663,0.29023238752105485,0.2801548454860865,0.2842519158211103,0.28973614725856267,0.2914529417012084,0.2914021292292852,0.2829474630306785,0.2637522939457073,0.278497662778715,0.27872161138172746,0.225537569943141,0.1554381762421433,0.08492677501191515,0.03727230717431085,0.07815528449264963,0.15381262043008426,0.2264265270737189,0.30088028916070586,0.3776499378234459,0.45235920725195733,0.5247694848971023,0.6012956454116067,0.6779767590135513,0.7358991471327405,0.6980715764190826,0.6266779515752023,0.5537266603969309,0.48269377685074244,0.41216256538105434,0.3440475706849839,0.285922508371383,0.24710634348689586,0.2176402645956228,0.17608339937003725,0.12227605884500514,0.06681789513111935,0.01592825611163662,0.0,0.04115451213952526,0.10268395236294003,0.1662579985389554,0.22109959121553313,0.2687992856597283,0.2859805821281145,0.27763892403754165,0.2792560668522912,0.28959236089051266,0.2913436292592926,0.296455243422612,0.29886926065293906,0.2868385028026381,0.2778630337161916,0.29261167625443196,0.2656220200077457,0.19920148840263474,0.12779952819718865,0.057067482034033,0.004572857197520652,0.035127836324644335,0.10582319707391574,0.18233229069703927,0.2572311351355909,0.3295084104408892,0.405972089907761,0.48280233716905596,0.5596328952185268,0.6364634532679978,0.7132940113174671,0.7899964273885762,0.8632120451508347,0.9288971615225643,0.9204387668668794,0.8517004799084911,0.775165721758807,0.7004214397211539,0.6283793920868836,0.5595359946241185,0.4883144107315911,0.4116273582328285,0.3368390350884305,0.26451098151458785,0.19656858311148073,0.21119902041946603,0.27712583777350774,0.3184226178466336,0.31701462545242864,0.30693420566559726,0.319654034767201,0.3267029050997443,0.32061783925424336,0.31608283363515355,0.30569808659117004,0.3005132160776889,0.3084326931921255,0.30525493651775926,0.272694616398482,0.22111306740447922,0.16148280368983836,0.09998995512105335,0.043342780230155364,0.03673675487923822,0.08573867648972411,0.139595402104144,0.19217327977109067,0.23491401814347235,0.2638374051873009,0.3016025413917287,0.36375785008871886,0.43418450811770537,0.5047876334380521,0.5758781412307636,0.6505014181026405,0.7225146598195664,0.796973095875009,0.8684669535540297,0.9325404756508635,0.9374169099247851,0.8716788344762729,0.7949483750108737,0.7181178169614029,0.6412964941216,0.5659086541092064,0.49392538489786264,0.417666431909246,0.3408524215671016,0.2674318614628579,0.24634723187300112,0.2933518411117517,0.3120997301576547,0.3006648168810129,0.30102461390408064,0.3148150901417046,0.315793428867589,0.31447251226020234,0.3106577973389788,0.30452900445179565,0.31122640927952094,0.3162244379940675,0.2999381687110956,0.26038138605712,0.20828578967832123,0.14852747891629026,0.08390175208207384,0.03582724502633672,0.0572917668606483,0.11465921393884326,0.16918332963557514,0.21726444714428927,0.25453751633518706,0.2849993448707735,0.33380360390342645,0.39764545304645504,0.46798505113308453,0.5394939739630442,0.6123752836752192,0.6851496319256025,0.7617721074757118,0.8377785598864418,0.9095875282156491,0.9802075074149093,1.0000000000000002,0.9406295858726845,0.8671586313068034,0.794000834948352,0.7173102861382425,0.6410318662804164,0.5690338991408457,0.49367947965740755,0.41685902761204163,0.34005762033832854,0.26656375905285423,0.23876666753196374,0.29470962464197714,0.32619904245743747,0.3172542436492949,0.3087765813141443,0.31908459961759617,0.32180842523916575,0.3150981860748918,0.30810254093451706,0.3137132722422107,0.30748555514732634,0.27653888543411975,0.22683969968412443,0.16812805322401148,0.10796056918751551,0.05838193930896174,0.07344988901681104,0.12555896018268087,0.16147899372476093,0.13711299659459097,0.1084294314817823,0.13915197393799017,0.1902398467313191,0.1931904619525393,0.18503796332867894,0.2174690336700369,0.2477886616276197,No
0.6077533653727085,0.617979752249926,0.6147109664478598,0.6133959472815229,0.615916094494694,0.6246139031038225,0.6307294731347899,0.6196965651391761,0.6027674971530239,0.585310764460433,0.6009572323217658,0.6233284368967802,0.6334085325860443,0.5896889356155048,0.5225875590551798,0.45414505263120164,0.3812520917659583,0.31229217747551097,0.2440392322603091,0.17108052663850737,0.09798412582605442,0.027342508108148533,0.0,0.05288887901563433,0.12412182886143519,0.1904243246135897,0.2626119654086625,0.3357000880819172,0.40677587160370465,0.4733263628955702,0.5458003892350127,0.6188484474138545,0.6883964454491114,0.7561027551808683,0.8276935343390666,0.8535640867989656,0.7992586976687426,0.7356426243356347,0.6829137448389406,0.6485763175895327,0.6326383268894145,0.6279274062286895,0.6120597735134836,0.5855940195297076,0.5623392901878728,0.5514842557993989,0.5669009923295993,0.5881940826491188,0.6074343892153693,0.6174814903412336,0.61065297827432,0.6045080852850244,0.6077442512699045,0.6196900734851203,0.6290366544586379,0.6335465830397602,0.6155357066247751,0.6006661735193002,0.6056417543689125,0.6286232764325943,0.6341643853837045,0.5835645586191609,0.5160522062811883,0.44683651986038053,0.37525966826902324,0.3089686745376685,0.23680947913580397,0.16452180086065704,0.09822057239469573,0.03279818577947491,0.025214314553981154,0.08763211077705979,0.16036688144484956,0.22780163635709094,0.29766419705539926,0.37048692023728247,0.4380887647681011,0.5077591878651497,0.580806826497217,0.6521842424494881,0.717975670829478,0.755173555556441,0.70909895843255,0.6571554734766247,0.6255205130572563,0.608608146284497,0.5937598663174941,0.576417708614954,0.5510949359562323,0.5222235646486977,0.49387880953918506,0.48907799615158254,0.5148532780270398,0.5519410481670357,0.5886228071429329,0.6117070856838558,0.6204036069612899,0.6143677172555075,0.613450166050451,0.6180769768159677,0.6294129662554744,0.627353395211975,0.6109134879106106,0.6091538237575023,0.630248241139191,0.6534123137882257,0.6460873719746671,0.5958643493822957,0.5454500496567829,0.4839672321302697,0.4112693293425056,0.33817219331436665,0.266391200957909,0.2001453856141353,0.12832252135381883,0.0662080585992324,0.0670599407552922,0.12229282366485106,0.17957570805055534,0.2515442256370113,0.3227193539448794,0.3892144177199883,0.4616422538345908,0.5346406783055209,0.6033439488102275,0.671844054731815,0.744827896062582,0.814792123224293,0.8219883147316354,0.7560432286166661,0.6986074507374904,0.6589122417854232,0.6387480433530062,0.6267666695657239,0.6090532935185153,0.5858052669384721,0.5571134318018125,0.5280153687456994,0.5089104876189778,0.5208083721458105,0.5404999052308126,0.5410799698722986,0.5675704829304316,0.5976017802471205,0.62439737805098,0.6429111603302735,0.6590874370180158,0.6729577034693874,0.7062085613376898,0.7599332704396109,0.823599784381629,0.887992272393489,0.9536381033430428,1.0,0.9688357138681232,0.902074290416,0.8352952886269192,0.7626797966377628,0.6927462328450842,0.6253806857773867,0.5525879778251437,0.4894011304777459,0.507650708185641,0.5744041219090543,0.6398944142327665,0.6841135902140267,0.6842293734533067,0.6589641310938481,0.638445133774787,0.6461343682737128,0.6603819748666961,0.6560777304286289,0.6445735737874532,0.6369762523358917,0.6402758100098747,0.6443087682377737,0.6370321640197074,0.6172898523652282,0.5830577147697589,0.5456716682246829,0.5151808146013985,0.5269338409353788,0.5589507374007041,0.5864937428425319,0.6096685078468207,0.6253099819180836,0.6380141621715698,0.6593368862534044,0.7045838223914558,0.7628186381019433,0.8263250123689592,0.8937105580594777,0.9559844066672709,0.9678491929952611,0.9118907680024824,0.8413129464683318,0.7718476192966233,0.7040810126392869,0.6311865440138904,0.5581343676207795,0.4927237830200428,0.4991452036497439,0.5622160371064995,0.6279850996476153,0.6654024495020121,0.6614964802978862,0.6419569171409345,0.6301198762596276,0.644453284982675,0.6602969275917878,0.6584024314278509,0.6508904798167903,0.6388266641993545,0.6292760912418793,0.6327205254459267,0.6415118116065217,0.6418388895620615,0.62464824724818,0.6033709367549989,0.5822339103410279,0.5838210240528348,0.6061969830164466,0.6330230268501065,0.6501493978982056,0.6595420938752299,0.6724317067641623,0.7063130221375489,0.7590510531158086,0.8212838142156391,0.8864644438272393,0.9554256081220172,0.9943455525886293,0.9558460978592167,0.8908902734237709,0.819169189678046,0.7482483992548623,0.6816147666878623,0.6090718034793476,0.5368556900186621,0.5006417064079602,0.5527434450351163,0.6184582075683542,0.6649340631650507,0.6626317379804212,0.6429259094657587,0.6243972494640639,0.6318449984436423,0.6480625986536077,0.6566629984523706,0.6549895886686443,0.6478746865069194,0.637476812093297,0.6420576358407615,0.6446705541625963,0.6438008298989966,No
0.8128741335925045,0.8174098654338815,0.7948136211261831,0.7718723418775313,0.801021517396121,0.833662813749084,0.8456884344884146,0.8163509886690721,0.7464671941356469,0.6624121667098195,0.5709271530972293,0.48401931495226935,0.3948103258985398,0.3032485911984095,0.21792463865008105,0.1275522503594131,0.04952220904808424,0.038973806479362993,0.11260845641696582,0.20450131454941478,0.295119633817861,0.3809340723289001,0.47366036613729934,0.5670140159671939,0.6603681617750337,0.7535814690397975,0.8331236168148013,0.8294858914987882,0.7929344536402352,0.7655551774104155,0.7370826737575353,0.6957436923333529,0.6402870922371848,0.5740832591002649,0.5147853328771514,0.46840854409194077,0.476562998358502,0.5329465414559886,0.6030856834376426,0.6788001973293145,0.7465606544663324,0.7926029877353129,0.8035054849960528,0.7982791937247888,0.7879210572295599,0.7923468885162077,0.8049168170780647,0.8087528541408455,0.8149562727471886,0.813391963841696,0.8208662647770799,0.8225116577844516,0.8219841784495472,0.811093799486521,0.7947938473630769,0.8148051858392493,0.8421510273554866,0.8393468192191185,0.7842851347084563,0.7027221632722844,0.6179869750382658,0.5270338488400987,0.43807687647346927,0.35094269581977966,0.25805017355503956,0.17080377200064878,0.08336922964704652,0.021048272606498664,0.06003766599037519,0.14444519635780861,0.23727716827398604,0.33049543938886305,0.4185231474285105,0.5065527124091125,0.5997735784816558,0.6928219039134196,0.7756454784379097,0.8410213851288748,0.8388113000315529,0.79715449183382,0.7706449391399828,0.7436592822623485,0.7005627515943775,0.6445443380616767,0.581840086476431,0.5187050969025824,0.46336835288196254,0.4551134739581715,0.5038065181334102,0.5747985694649287,0.6465661130257634,0.7124254704427546,0.7678883397188372,0.7873241659001056,0.774576680922181,0.7635211479488453,0.7674251590435219,0.7752339625653715,0.7833813965550365,0.7869096589115165,0.7839027700874606,0.7863197739685648,0.791563931508164,0.785376537057791,0.7597930181228782,0.7718066171623283,0.8077382399574222,0.8272676338726406,0.813812246764938,0.7489377336363057,0.6661507169319194,0.5766053413280581,0.48462935876657665,0.3993341571904321,0.30751779516745104,0.21667852096875806,0.13116947858288053,0.045150468194072424,0.0,0.055485963830882445,0.1276243323690287,0.2154767499248662,0.30799731549362663,0.3935780221646692,0.4845924751798749,0.5779104363984549,0.6683648658785912,0.7542661906128045,0.8381318573798746,0.8349531355422142,0.7894209476972198,0.7622838295212884,0.7359039947365509,0.6988951619870094,0.6444306698317119,0.5859635363185176,0.5466038631819914,0.5929407990298505,0.6571902825398863,0.7115205738369916,0.7534275995410424,0.7824419855328912,0.8095129268944605,0.845701201221694,0.9176710930486369,0.9812476971524642,0.9628153942450273,0.8834600577058951,0.7921516548338776,0.7061800759196817,0.6158088415527472,0.5227833931101433,0.45624598848972076,0.4975002989313835,0.5879878867169019,0.6788335550057258,0.7611754392657362,0.8331743246462595,0.8627688017065858,0.8550693404216669,0.8299190739013655,0.8051222630308159,0.8191730551817258,0.8240174912722797,0.823896938671649,0.822043589934921,0.8174367088182497,0.8208742384660523,0.8161172910946808,0.8070554948479001,0.7995064531617704,0.8060107921783823,0.8217288490542336,0.8141866542666893,0.7800307750882174,0.7206258434475383,0.651511798956766,0.5743536549425394,0.5111278606019254,0.499033349949759,0.5592271351447797,0.6246281345258786,0.6846863339402998,0.7390827020170396,0.7774844976361999,0.8035491703991127,0.8303043686260541,0.8845070514327227,0.9575123576187006,1.0000000000000002,0.9493686847161265,0.8620958130684875,0.7765407480280113,0.6856192656634867,0.5923017976665939,0.5079147358788276,0.5187593002581334,0.6051709004335319,0.6874895955853391,0.7588744550327182,0.8339290818582246,0.880990666178805,0.8799043012474785,0.8605515821660805,0.8331988779263337,0.8374186396698104,0.8533032961108764,0.8531934838320192,0.8581879850656693,0.8565667847310299,0.8506278950475474,0.8475400235602593,0.8391613620292573,0.8306371220615776,0.8218090932073312,0.8252732656217545,0.8379831797884607,0.8355815482895925,0.8058316217675068,0.7503005998581955,0.6800840876659935,0.6095382497821626,0.5419195618447032,0.5198597476530562,0.5706836884839173,0.6311178324607201,0.6919931503066907,0.7414530060956097,0.7792294960676105,0.8066223456088624,0.8345443311179028,0.8875780883793458,0.9565786556320488,0.96623548050079,0.8939324046427952,0.8050417670379246,0.7125420227688564,0.6351186749206488,0.562752139164004,0.4850004367157863,0.3958811386563825,0.3437940483916071,0.40611759913852263,0.49887614543698544,0.5858619887975809,0.6744868660776058,0.7593495771298058,0.8351217071272745,0.8775273850983971,0.8770834575855979,0.8528168374945235,0.8264731256309663,0.8442995976140721,0.8556330903979763,0.8503325206057459,No
0.6215489606564745,0.6254440437643924,0.6282560485355132,0.6299098290822867,0.6220870716313144,0.616718226195558,0.6281978150789389,0.5967733230075826,0.5444783826969366,0.48983119393750263,0.4329048382733378,0.3786873231234683,0.3224427254192107,0.2650814596363682,0.20780454928320127,0.1528766297267223,0.0975277420545696,0.0406036710977615,0.0,0.02539919855335568,0.08163606936668116,0.13899986752962393,0.19543290697727903,0.24954637971721857,0.3053196097343237,0.35607958953590835,0.41204061044032947,0.4691616925459754,0.5213839335466118,0.574702777243848,0.6288521156735069,0.6850720292499367,0.7424324942697973,0.7996395089798765,0.8408261045651324,0.8121318460784342,0.7589933824233424,0.7064924799320507,0.659793933864536,0.6244332062295841,0.6072318427421926,0.5882050102845107,0.5555937970097875,0.5193774295311129,0.49481554265684924,0.5139319553144033,0.553647873856967,0.5921904900990261,0.6165748341268881,0.6211664539396821,0.6148430040810418,0.6189669484137261,0.622515165826046,0.6264023275569646,0.6279924652835996,0.6193711700006403,0.6148337743805163,0.6284878094235253,0.6019713527634503,0.5499391121389512,0.49535272038980704,0.43867390931413874,0.3846213529440712,0.32798011304163766,0.2706182347947603,0.21414487996316614,0.16004170862036768,0.10311516434672402,0.047907948938610806,0.028468901078093217,0.07050666642650655,0.12681173202922477,0.18410536259722757,0.2392242448126902,0.29437705479768583,0.35168030120283256,0.409051355916245,0.46642241062965706,0.5237934653430694,0.5811645200564814,0.6385355747698939,0.6959066294833063,0.7532776841967187,0.8105354236483326,0.8543522065619663,0.8296851368580969,0.7759482750624309,0.7233111211746563,0.6751611004833856,0.6378402964531628,0.6191412152309038,0.6025369670831743,0.5715924662023559,0.536746333155497,0.5120417082776434,0.5299024187398241,0.5685707658653174,0.6028729167127377,0.6180433174020405,0.6131274219955024,0.6131190504910324,0.621799470282479,0.6296289838364758,0.6337713194451159,0.631670270535817,0.6192169894021838,0.625695671979412,0.6197206681100728,0.5719710977620868,0.5184121505377483,0.4616535434745609,0.40642755201807057,0.35307981737106553,0.302338587873902,0.2459910065633756,0.19069265812168465,0.13571731390518774,0.07845043213978486,0.02336629622598463,0.0016164878867903076,0.043872783708859026,0.10077604927140646,0.15763878971787396,0.21170812128725755,0.26828498733553285,0.3256518453782228,0.3830229000916342,0.4403939548050465,0.49776193227528376,0.5544344649501216,0.6084846319597659,0.6652710660398871,0.7226400226531664,0.7799869539338254,0.8308272272398339,0.8217566587423843,0.7692005646837147,0.7170977524286938,0.667303050596937,0.6287537541739897,0.6084345008880983,0.5899241285322884,0.5632137119903293,0.5621176849610078,0.5923989551414857,0.6142860107381525,0.6317427270586171,0.663263536466787,0.7096368157468327,0.7625939086097965,0.8192633811732929,0.8733352048844651,0.9274434884917955,0.9761196344619123,0.9737127715758362,0.9222687996063255,0.8681318084591945,0.8118330784228297,0.7544707181039846,0.6972555318035706,0.6426459888509163,0.5869385850783015,0.5301912064859265,0.501506918906203,0.5434439879954343,0.5962149340696465,0.6407327781162884,0.646385643208042,0.6347548057436546,0.6467686950621525,0.649027116622217,0.6428031571360477,0.6382186686845315,0.6288721342961756,0.6277147372346168,0.6315640071859396,0.6206509575445862,0.5902599867090378,0.5502227077513919,0.528126973276284,0.5539794719411579,0.5890495581043793,0.6178906251226927,0.6329349936544435,0.650027061684685,0.6895176440701373,0.739186303277248,0.7923404699810213,0.8464323113909255,0.9002247806440591,0.9539483173259122,0.9955278000247105,0.9730413803645159,0.9187177028057258,0.8644008959302278,0.8072864361974047,0.7499370872130656,0.6940717878418766,0.6395902801040904,0.582411580993316,0.5250406621846658,0.4678427192366822,0.4271676116234492,0.45756273984837237,0.51151337406049,0.5647857101564703,0.6108635535500889,0.6466260553639916,0.6393233053509543,0.631189660332025,0.6428885885797186,0.6433782426171312,0.6399219184486773,0.6356346106373209,0.6307750731138819,0.6294553006595949,0.6355922956297401,0.6283850519936807,0.6059086034368528,0.568831372958509,0.527820724920306,0.5172598129621581,0.549988461660185,0.5854954750295427,0.6113402033261046,0.6264573473001469,0.6521805620229414,0.6946903934275516,0.7414023719264723,0.7941145868579349,0.8479456436880132,0.9028849139180264,0.9566368138496535,1.0,0.9825665919226119,0.9276610003563164,0.870297283508195,0.8129263298760703,0.7558064060456748,0.7051316031325254,0.6601635837719974,0.6130792672622911,0.5583083325376723,0.5013086078863319,0.46628296877192466,0.5039310356570876,0.5584015850850211,0.610117197699751,0.6442491638873795,0.6360201605630599,0.6334820930153011,0.6414129064848745,0.6416985843198367,0.6398246103358817,0.6362765960534766,No
0.5353405928809185,0.5654190988429496,0.5932692557861435,0.6348141436964636,0.6666151420207145,0.6694755530382467,0.6554228095070396,0.6625082186980317,0.6691908025789799,0.6638196593147732,0.6730434653487558,0.6900313537732853,0.6710410283952112,0.6146217758970238,0.5523152554239493,0.48801421103587117,0.42678516033657077,0.36399256045309036,0.29945635809219806,0.23490384312443796,0.17151822355982088,0.11068218714306788,0.04687208390923919,0.0,0.028619829963702464,0.09201937408959093,0.1565712623110403,0.2199434683242626,0.28078265579414285,0.3449263314169926,0.40948682592384056,0.474048082162955,0.5386023060605447,0.6020910808054138,0.6628774156201637,0.7269559333491772,0.7914851122178722,0.8478859562264346,0.834525819156067,0.7774535282374221,0.7232792828488744,0.6841596115367918,0.6593101116320108,0.6301130934380176,0.5901246770809877,0.5485550791785117,0.5261490691511256,0.5488734461086806,0.5932639573430143,0.6387494000642737,0.6748542267337061,0.695185306928475,0.6873567558235999,0.6793465309708864,0.6853345417001551,0.6810115914964787,0.6773831172689511,0.6926558170470964,0.6953304633741498,0.6474894346854856,0.587108189608792,0.5234326925683291,0.46065849722701757,0.39941445431030587,0.3350654278655847,0.2705058383675102,0.20651063437374567,0.14577394826719603,0.08220951322010883,0.025038913269415264,0.026407406469118794,0.07478113016157961,0.13699901990374608,0.20145854565502447,0.26335829258901655,0.3254038152289772,0.3898923590497121,0.4544536152888269,0.5190137085836275,0.5830749848376643,0.6438409433589682,0.7073666717615728,0.770960803666001,0.7985835617864644,0.7525002280685631,0.703113920044699,0.6721344992002602,0.6481754468913917,0.61318892189632,0.5720278364639538,0.531748203271566,0.5228472827771509,0.556188573732152,0.6021795629148734,0.6471741926895459,0.6790798909097602,0.698333379035611,0.6976340185244355,0.6955706118799689,0.6978688543469638,0.691558851311311,0.6863203399437695,0.6985114589434295,0.6978202629645768,0.6490355377549235,0.5868541232148513,0.5255085406478054,0.46289855849452954,0.3984027195486839,0.3357681648230205,0.2744084599827586,0.2100252883162047,0.14568838289119546,0.08566673727507629,0.05933762344496124,0.10573751020658212,0.1696791051276793,0.23156207705753984,0.2936239850316573,0.358114153157697,0.4226742784267912,0.48674226156973155,0.5475131231216209,0.6110274451617559,0.6755821981856384,0.7401386403130082,0.8012614804387365,0.8064550642432281,0.7538169607710762,0.7065952352452638,0.6787118330646551,0.6541198287531561,0.6191373632746658,0.5773612068901727,0.5419448175494427,0.5429963116670529,0.578992432676855,0.6259356872125288,0.6661659708313358,0.691562870195238,0.7066159416861651,0.7063363648730198,0.6820824989495359,0.6434275754750695,0.5982391633118854,0.561671433746462,0.5710515306255686,0.6122593406108799,0.6510081967551455,0.6813844059746125,0.7051666787432014,0.743878724341327,0.799292612378942,0.8593901051280898,0.9196098256801782,0.9774874721789383,0.9999999999999999,0.9503983237532428,0.8895208163883227,0.8264804217471752,0.7619360185443765,0.6973757973523989,0.6332906949597515,0.5752589561597953,0.5657973141125072,0.6214719669375993,0.6820528476752021,0.7203931875147072,0.7195912677777319,0.7079458886449684,0.7125761557323029,0.717596228909688,0.7145469868279665,0.716835669603592,0.7179111479246008,0.7032771687082247,0.673227973315022,0.6321829829985985,0.5864079349253859,0.5477619438098181,0.5553728502286928,0.5959244937595665,0.6364831933929007,0.6679790409336095,0.6916254464576668,0.7301236773244768,0.7842445208379737,0.8428159787975592,0.9027556737434935,0.961149842794864,0.9840247103544387,0.9365696951605401,0.8739490302069258,0.8094285416645931,0.746269059687089,0.685304990168682,0.6210689987702729,0.5565081302582447,0.49194687401913073,0.4274589487760315,0.37510727283646317,0.4003957675553549,0.46292263394690814,0.5236633565965095,0.5873717885758276,0.6482067135434723,0.7011850923877648,0.7183814764033294,0.7044457070831665,0.6962106739204711,0.7028083922451154,0.6964921931954609,0.7019523989854803,0.7140663916799971,0.709726886014786,0.6851648196044101,0.647642720645355,0.6015844791556418,0.5597898124054246,0.5550608548189215,0.5914011023795058,0.6325659136855449,0.6654918085483241,0.690605973398414,0.7251028548000166,0.7785658002264724,0.8367529150382756,0.8962543149460286,0.9546993741421764,0.981074922501641,0.9346692696037721,0.870396416914952,0.8058685925599004,0.7432586104066248,0.681876275866927,0.6174895885779826,0.5529283718870106,0.4886672232285033,0.4471566863586389,0.4864279658415288,0.5472572647332629,0.6104545891850341,0.6695681232131526,0.7076539255048369,0.7035072210015391,0.6879961768368564,0.6875323717806529,0.6861069949407154,0.6752852995486884,0.680229874237801,0.6914503000833933,0.6750461391184827,0.6415792924967593,0.6100527970730854,0.5714902090730571,No
0.7846274666357048,0.7650965944149927,0.7480834118376384,0.7289840217027314,0.698198215785932,0.6494361760127026,0.6237233869143396,0.6085781418169235,0.5664274625229243,0.5312563929334243,0.5285680431821357,0.5970514094145273,0.6490540754947512,0.6612694875281001,0.6229597823632979,0.6064783996929731,0.6380168560426139,0.6895043462523197,0.736435548180994,0.7669584460556468,0.778790177060347,0.7786168156379333,0.7752546075408221,0.7858862687412146,0.7932252455234533,0.7698837768813197,0.7627043677500142,0.787398510387124,0.8061143388793522,0.7637544047199932,0.6874635328834607,0.609074366914316,0.5300283323992784,0.44689817018805666,0.36995089506255974,0.2888188594678306,0.20655530883250395,0.1301709080262099,0.050009722389699696,0.0,0.040946286990632075,0.1211408774727134,0.20487681648648215,0.2880161288947928,0.3647909116044735,0.4461874024390241,0.5273326310729044,0.5964932784736586,0.6774928794555014,0.7585975051485486,0.821519867607225,0.8105972794952584,0.7860497510547265,0.7696361716362295,0.7506151371749209,0.7183833965215426,0.6811905074115173,0.6459937690776559,0.6380394475685739,0.673641188398738,0.7256234512154885,0.7702776468675426,0.7961976223509409,0.8058988081560993,0.7966026931339122,0.7836098802481345,0.7894528183671404,0.7945676949826687,0.7726435268461486,0.7563360931883442,0.779471581471595,0.8067953080389726,0.7858276519717303,0.7125125312529778,0.6352344958216171,0.5579320725555122,0.4776503852052819,0.3956140911800762,0.32753925302921527,0.2559114084545643,0.172770246127408,0.10725785860182802,0.13456117321776484,0.2127424625288855,0.2898702846899025,0.3731832027976828,0.4569415673477851,0.5395646205698684,0.6159571937300864,0.6982523435590787,0.7818371858770209,0.8443055998250623,0.8223886313596845,0.7977226139914134,0.7825394183501101,0.7648445813439705,0.7382866396894961,0.7010943054569753,0.6607223571545165,0.6491219423233595,0.6832012480779398,0.7323044076765229,0.777793281469047,0.8041107231018593,0.8086194810178818,0.8064112554238249,0.8044741147745057,0.8069645036101613,0.8074982468408752,0.7820703718551106,0.7638467153610969,0.7809117223834366,0.7990593452247318,0.759805549590438,0.6784137277569996,0.599617767878721,0.5206540587464404,0.43983037370600864,0.3627481839443977,0.2802051257472141,0.20360252814149427,0.12319779005154519,0.06701855575667526,0.09963114580718624,0.17665866447394885,0.26026171285038513,0.34395548653061436,0.42364035113956156,0.5017704011699574,0.5853262299297474,0.669065441218733,0.7497178972239523,0.7992373478665237,0.7837953901409028,0.7635119196301287,0.7475920586084223,0.724716041947583,0.6909065115560574,0.6506032919226205,0.6266311499692508,0.6480445903099689,0.6937455268091682,0.7456086074024019,0.7307757847665383,0.6822551539327074,0.6676058452927559,0.7009299732005209,0.738234587233266,0.7671750388208148,0.7855542106026975,0.8004324621993312,0.8297263380237724,0.8875774829418869,0.9536596071344873,0.9708190140036396,0.9065205604222645,0.8268016354696966,0.7492134744910829,0.6657605383345281,0.5820317546008315,0.5053299924695814,0.5064166193165857,0.5845230157770637,0.6625383943243134,0.7412665823905825,0.8117372128317323,0.8444378950553765,0.8253683095529561,0.8046118490095141,0.8128581114875618,0.8359039125547619,0.8378952145685773,0.8363823709823054,0.8360451017169411,0.8413744245596014,0.8342936907547692,0.8196269789397886,0.7807225628437938,0.7329772309979298,0.6905818082729923,0.7009550696406518,0.7390167334882488,0.773772475287739,0.7964125866821999,0.8112526240529717,0.8294402939740281,0.8652475359028741,0.9350840839239299,1.0,0.9986551037429742,0.9291746989057686,0.8460038722613409,0.7626862555369441,0.6855965637331164,0.6120501645521744,0.6194099024294762,0.6978743210188622,0.7804938266942819,0.8443320826984407,0.8482246245615112,0.8223496170554224,0.7961949474227831,0.8052291550919725,0.822158235361255,0.8166804820987376,0.8174827335050622,0.8284355335868238,0.8337384812101475,0.8265984796752454,0.8014047335681581,0.7599248205855479,0.7060342803184018,0.6713524861038013,0.6933430414028304,0.7304899674047146,0.766456175666861,0.7894691716505825,0.8045766735734047,0.8277828809332809,0.8754685008186537,0.9340683325383344,0.9803487536423746,0.9500020193506179,0.8708302680269623,0.7978117926146827,0.7228884698023698,0.6477142409880273,0.5750372279820292,0.5097627958283854,0.5485031697878792,0.6290690348036608,0.7055346378466779,0.782202650462085,0.8437701680633337,0.8456454453963337,0.818011301772558,0.8002278714638335,0.815166900440338,0.8252963762517426,0.8109771874428949,0.8051080770470181,0.8094468722101612,0.8034538099979874,0.7920603860697589,0.7640085010436931,0.7173972991747121,0.6638013194407196,0.6456892852673265,0.6818682223496052,0.7215378568352241,0.7590800896273732,0.7781236198678677,0.7949624081448051,0.8198581131316546,0.8629418030095389,No
0.3085527403867655,0.27550771168697563,0.29423207188004685,0.3428075803077649,0.3405136097871112,0.38658908741560005,0.4427931707787992,0.4990726280687702,0.5504081123810208,0.5622399845747329,0.5675369993278597,0.571162818012514,0.5722258923860747,0.5682981233659167,0.5457082643055021,0.5538817483923274,0.5743832316643555,0.540224763023727,0.46716238514329167,0.3917432423125432,0.3190872124319353,0.24075645265340717,0.1582110836752726,0.07608672105975767,0.03278598790883969,0.0792397075923299,0.15172368925751445,0.2338527055270615,0.31779283876334274,0.3972604762573234,0.4799305150617873,0.564360543594635,0.6473911991542963,0.7266756812044034,0.8102821165142226,0.8732744948323167,0.8331454262203498,0.7538438747973767,0.6734357170899642,0.600060932408799,0.5371207397822092,0.491180392128194,0.45111499733317284,0.40039098956222186,0.3432349290868729,0.2874863274787306,0.2607436283589998,0.3004961268939361,0.3697568143519593,0.4382634488865059,0.501808756723591,0.5393444922089116,0.5340457843860104,0.5245441347374725,0.522324706966124,0.5241475686490745,0.508980005158807,0.5027513884658931,0.5267529771498055,0.5335576799594067,0.47851085143107686,0.4108113044137246,0.34171567284054827,0.26070603926560676,0.17957038731390162,0.10021060357425382,0.0264930875405055,0.013111214535554194,0.08115656894588963,0.1636787816855062,0.24289686434201396,0.3265563094538576,0.41013347864343197,0.4893288479421719,0.5726484166770166,0.6570788081520796,0.7341393457525417,0.7265654247790648,0.6527369277633132,0.5786920389183917,0.5137706727133969,0.46319907598718413,0.42486011574049465,0.37609724261802924,0.32028089545786986,0.26343844281749895,0.23845348413824896,0.2811983346865361,0.34960169450763645,0.41792189925185264,0.4842425132017968,0.5359462987660456,0.5459797560240914,0.5410706564480344,0.5462135272335785,0.5528054486630977,0.5529248050857803,0.5386643129178282,0.5430419576115914,0.5624537851172361,0.5266998664291204,0.45162049846095587,0.377254089343671,0.30530315558866916,0.2248749099814894,0.14425791507826935,0.06340687277905521,0.0,0.03193502984933916,0.10944366191672439,0.19254976859037343,0.27174096509831913,0.3550934312384727,0.4394218315484205,0.5201969759213686,0.6012671894356577,0.6856287411915888,0.7685210051047219,0.8013136390135741,0.7373022137931909,0.6569309397409259,0.5829267218832713,0.5244417547299566,0.4811790470245424,0.44032780543449335,0.38728899882330314,0.33097541526331764,0.2899548929537771,0.31914658821751707,0.3761237440716839,0.43050224376984414,0.47652841828265446,0.5166591117705138,0.5696568442949147,0.6374765314709897,0.7126911034914275,0.7900190829569039,0.8689768552705045,0.948728025243147,0.9922927129409701,0.9401484632230562,0.8611599209603277,0.7770731770690508,0.6928328078659448,0.6126277694414489,0.5309372437635208,0.44653299231404586,0.36211704224432417,0.2802983789214505,0.21800523485651546,0.2550516376838944,0.3336368851946677,0.4002706855307364,0.4719041770419069,0.5467012890918718,0.5868691341873103,0.5791449789045345,0.5569621186961059,0.5710677457760328,0.574619590422106,0.5715339777469083,0.56566719426711,0.5650776137419066,0.569693282909227,0.5485118793228992,0.49463262640932026,0.42819056830636837,0.35605708445116935,0.29038477534097973,0.2745228880794204,0.3275543918309961,0.3839125451194131,0.4328283948527675,0.47351890899551774,0.5218177276787429,0.5871785364097303,0.6610528461665283,0.7377627579002154,0.8113453220482935,0.8825576415049853,0.9573157915569522,0.9890548284374122,0.9354777314301063,0.8602287327087735,0.7802637171600076,0.6960432247791782,0.611644740036195,0.5300541286601838,0.4497606631481835,0.36550383077973103,0.2824388236900339,0.24445941825638184,0.30864248992221655,0.3884674299791743,0.46725221149451335,0.5367893449561786,0.5612415251214632,0.5398273255737064,0.5289703735206198,0.5449327341175331,0.5442594897211465,0.5431520620270526,0.5491637701424444,0.56408005342839,0.5566877057783618,0.513181067509798,0.4469443302535897,0.3752323722327643,0.3116855243755342,0.30626883232397184,0.3613264802722195,0.4168102043214673,0.4664173285067025,0.5066365962157157,0.5554650448081703,0.6206547462139728,0.6939945055869491,0.7708348990345654,0.8503473017602098,0.9284036173460478,1.0,0.9975899509461096,0.9245766426905057,0.8408643628761036,0.7585505597730958,0.6788493135284087,0.5947552030538604,0.5103325260568478,0.4282167792851256,0.3510747782546674,0.32938580326965516,0.3884986294891709,0.45545355919307007,0.5317792961252256,0.5889825751495289,0.6000929926586213,0.5744687757392198,0.5732993887873342,0.5910865988318251,0.5923803950516849,0.5925955150957599,0.5873733162169622,0.5854147443814773,0.5754738467829893,0.5298376892101252,0.4680390234798443,0.4022679142270259,0.3588439426683451,0.34714034858823684,0.3104445172736343,0.3158239719600521,0.3729412877812682,0.4233060379685457,0.4354626816899244,0.42678087761179573,No
0.6149672894502141,0.5993869866576729,0.5866327124427568,0.5680641578339538,0.5395583701214943,0.4969398745880311,0.4772662046347691,0.4673929320021257,0.4304038803121575,0.4029091423584472,0.37622526610179485,0.4174099393289932,0.4738231490547167,0.511947152478291,0.5050921465975313,0.47006025709800126,0.4379491052190556,0.4273575473522544,0.4561687420469478,0.49878413973517133,0.54440805253681,0.5859130283020486,0.6150784099800974,0.6243503398432304,0.6206567401031808,0.6124716884491506,0.6206415177664502,0.6282082895234544,0.63013576722543,0.6324120218113802,0.6378525949066618,0.6351200940829484,0.6243603838376188,0.6246885972039047,0.6439849252694105,0.6645955907235608,0.6712411913868481,0.6666741661511542,0.6255679527838616,0.5575346209499719,0.4876171348893503,0.42275841329644903,0.356557170998661,0.2865464053173947,0.2190797119724459,0.15528435037568555,0.08568012987219897,0.021568707690944877,0.001874010763483147,0.05141736717080747,0.11883527659861404,0.18888199710276354,0.25603622308619123,0.32006895930134394,0.3898308189588069,0.4599237335063391,0.5299195458844486,0.5955635766070326,0.6609612822997515,0.730023694538118,0.7582637203266045,0.7087369482405088,0.6635871080810005,0.6360221259078038,0.6200473998177134,0.6044001727560522,0.5846414369644484,0.5602649210635418,0.5268507532341251,0.4900034945853773,0.4504704074624992,0.43114158025386273,0.45380481338092094,0.4993648716864587,0.5472513680496696,0.5894430069895731,0.6226806220805237,0.6316287486618246,0.623732603304288,0.6185899062728111,0.6326989769362243,0.6449038494636037,0.6492529878391957,0.6517404990016014,0.6500103913482005,0.6518574793936021,0.6419986380520697,0.636716908796293,0.6401917979999721,0.6569238566298639,0.6642210653246379,0.6553548475589757,0.626160881917109,0.5683754497054014,0.5017184076355259,0.43166634597809983,0.3615733457457173,0.2916466150927499,0.2282312457936635,0.17547905909111905,0.1094896942937742,0.04549456146235231,0.0,0.0274035510222711,0.09508474607179296,0.16122066950587777,0.2261386213874652,0.29606758374843745,0.3661605839808211,0.4362478963686909,0.5047599825178426,0.5679497905138851,0.6371452974251599,0.7026544494513838,0.7447475699537445,0.7137537088912478,0.6586320309661065,0.6260518458190674,0.6080189910421128,0.5965156178591695,0.581993895859384,0.5598787426754577,0.5251528156234935,0.4895743244629436,0.4555177138202675,0.4333158863269204,0.45205742679363503,0.4956590531602585,0.5413965895490196,0.5850221540510803,0.618573444763457,0.6307446207622491,0.6237103391788237,0.6207533891395969,0.6253285362530006,0.633187423392062,0.6381614303839491,0.6430267110658883,0.6558213780666144,0.668182787054626,0.6657770502798599,0.6633756863376059,0.6498370680118848,0.6471578285164263,0.6518621015805446,0.6559518997557805,0.6467891706765645,0.615064019935206,0.5714345906140783,0.5225383698083015,0.47917769476391725,0.4728991252374528,0.5078039429804535,0.5439706732282663,0.5787107437994634,0.6037893459090409,0.6197795406062758,0.6310280021265027,0.6454029753480461,0.6772262637610476,0.7299830741144402,0.7899776771675098,0.8514424941351766,0.9125917716266541,0.917738442761856,0.8613775594056767,0.797964758403251,0.7283687806249171,0.6586664432854925,0.5948062856985392,0.5298220689398807,0.5153527014947403,0.5739940188295141,0.6335498242520203,0.6746947741682359,0.6892613921292381,0.6932728081279538,0.681829268843716,0.6716301225099146,0.6683287555256625,0.675772628393299,0.67869920661292,0.6777794789617795,0.6753431734535615,0.6777609518190457,0.6695700425154976,0.6567086096146559,0.6468068424689408,0.6549754302948907,0.6615457933481506,0.6494120631106648,0.6217722312894047,0.5819817721144869,0.5361250628466809,0.4852698784245284,0.4634828869054852,0.4919070426924621,0.5321158144598999,0.5677437215672407,0.5947672639096018,0.6164661732155328,0.6353333209372467,0.650815129340101,0.6719545695626776,0.7083111792746946,0.7643664608589078,0.8249239162627491,0.8778104625160739,0.936286371947396,0.994472597988749,1.0,0.9444154749073823,0.8775145828501543,0.8074686578813173,0.7397495540275474,0.6761340340720934,0.6065316045363944,0.5364388672678664,0.46634726766748225,0.3988225301867274,0.38953871830673026,0.45062768348476845,0.5149887034173428,0.581463841274771,0.6442892941890117,0.6895440696170188,0.7022847440396185,0.7023873156453502,0.6888571611127856,0.6675801178135525,0.6540936970458571,0.6643857890259666,0.6692950020420503,0.663180751885118,0.6574491212132529,0.6620308533857653,0.6549106521724768,0.6464374394126293,0.6503414670241039,0.6536413441597193,0.6468589120148658,0.6327639785892469,0.600724629438333,0.558749868205423,0.5123525813870469,0.4686170742360276,0.46725555813464625,0.49997085229939064,0.5360832793087305,0.5682339398345599,0.5926551540130436,0.6108016150501678,0.6235830468815118,0.6334807290126849,0.6566228740427911,No
