0,1,2,3,4,5,6,7,8,9,10,11,12,13,14,15,16,17,18,19,20,21,22,23,24,25,26,27,28,29,30,31,32,33,34,35,36,37,38,39,40,41,42,43,44,45,46,47,48,49,50,51,52,53,54,55,56,57,58,59,60,61,62,63,64,65,66,67,68,69,70,71,72,73,74,75,76,77,78,79,80,81,82,83,84,85,86,87,88,89,90,91,92,93,94,95,96,97,98,99,100,101,102,103,104,105,106,107,108,109,110,111,112,113,114,115,116,117,118,119,120,121,122,123,124,125,126,127,128,129,130,131,132,133,134,135,136,137,138,139,140,141,142,143,144,145,146,147,148,149,150,151,152,153,154,155,156,157,158,159,160,161,162,163,164,165,166,167,168,169,170,171,172,173,174,175,176,177,178,179,180,181,182,183,184,185,186,187,188,189,190,191,192,193,194,195,196,197,198,199,200,201,202,203,204,205,206,207,208,209,210,211,212,213,214,215,216,217,218,219,220,221,222,223,224,225,226,227,228,229,230,231,232,233,234,235,236,237,238,239,240,241,242,243,244,245,246,247,248,249,250,251,252,253,254,Target
0.6735873807947518,0.6668802545471132,0.6743926298513042,0.6857340476344497,0.6870947438369331,0.6787858647275228,0.6678476622188937,0.6855056149983368,0.7043146409980577,0.6620098589461948,0.5808649828721303,0.49794058516783524,0.4192853823048842,0.3356358560681044,0.25508589338450893,0.17461936469810535,0.0933754937364778,0.018063501548575722,0.0,0.06534990530419571,0.14895639409200423,0.23345186178458155,0.31668892944281046,0.3952586409405737,0.4788045694260187,0.5618462337598015,0.6347889737222193,0.7159808084917337,0.790859331475711,0.7780485389249475,0.7148949623390496,0.6622286884244392,0.6165637868754082,0.5745854288070588,0.5216139055773491,0.46564434883326566,0.40778570603036146,0.34972624898814353,0.32213096403994734,0.36253402736210216,0.4277063266259714,0.49603349034458544,0.5622075467023252,0.6254239661480382,0.6669403621733133,0.6769530368636593,0.6683660667493193,0.6608740214920718,0.6663197341598105,0.6658592192711369,0.6539994469437912,0.6362243789270835,0.6537725307336538,0.6835033891452941,0.6685750217772931,0.5960467382069324,0.5176048199761357,0.4359234546839136,0.3552200314111339,0.2748910814766158,0.19184882799016723,0.11367822057612365,0.048930781109861265,0.07377959140878743,0.1544389654721089,0.23403415637817293,0.31557317977776334,0.4000300923299501,0.4845324639570058,0.5689550676537835,0.6498994920491633,0.7300361016894036,0.8133804790254412,0.8533247173072452,0.7958442918322185,0.7278170470119226,0.6732739886271605,0.6276385274928119,0.5833622725584847,0.534900458209722,0.4796232222790707,0.41874315871442536,0.36543334524491067,0.33908779702811664,0.37597778025768724,0.44138351277408516,0.5094297145048422,0.5795389856472078,0.6376124026866298,0.677936493007853,0.6962599477071459,0.6907977258647803,0.6894956726239473,0.7005921194739718,0.7020326769983284,0.6831473313692692,0.667806123908237,0.6897412958413321,0.6988188042028517,0.6472678310008472,0.5705518773957735,0.49134184809936554,0.4107985657423078,0.32640648115469195,0.24191016870573834,0.15876161752964724,0.08185639581512927,0.04244334094264712,0.09668365301448145,0.17964056402900752,0.26311018698199884,0.3416646456486755,0.4249916992402135,0.509489620287601,0.5939918721506438,0.6782157256083551,0.7572465204311142,0.805836134372783,0.7547806895262686,0.6846330542080762,0.632005359351861,0.5855009400986623,0.5390940270637495,0.4911055898336637,0.43516026718444867,0.3796867484411518,0.3285377065875038,0.31524972567917586,0.36560860660591643,0.4351563342326358,0.5019311559146243,0.5647434840704991,0.6205417117374151,0.6504793396254575,0.6584753698092342,0.6718037889716709,0.6786541899985786,0.6661946170485152,0.6270526719755204,0.5700637655991488,0.5055258908916106,0.43355372053179375,0.3683881406700563,0.35274088544529925,0.4013311166525958,0.4572387003051951,0.5108017292070445,0.5611797733535445,0.6054346276307966,0.6520957457188935,0.7074491715166839,0.7760727647025046,0.8500019181436452,0.9234983294964408,0.9380882801699505,0.8745179040191849,0.8062553619434604,0.7239837931857013,0.6394908076865872,0.5550015361926534,0.4727368401612909,0.42519597852256086,0.47964750427431635,0.5577005978022095,0.636459393440674,0.7072597764250789,0.7274345334525502,0.7080845080465591,0.701281674729933,0.7192676385167341,0.7230383264960317,0.7171329254814273,0.7114052904064428,0.7190659850721991,0.7137897309070801,0.6884037388882404,0.6430284341925775,0.5805990616866982,0.5144418481107843,0.44719841461081555,0.3865638596552522,0.3876818898132083,0.44002191824457204,0.49795501652463303,0.5549940110157224,0.6030437007476067,0.6478215792701819,0.6915571124083119,0.7495078628714537,0.8206868950304264,0.8948087848997534,0.965462625771318,0.9779326667567915,0.912036047577195,0.8283957585283831,0.7438949116695784,0.6593925400425241,0.5748901684154694,0.49038869105880856,0.40786676962860213,0.38171730082124145,0.44846228448672265,0.5298431925009847,0.6083802972132054,0.6841047619043027,0.7227152875787272,0.7017955629911515,0.6707868117579766,0.6708274067087144,0.6881266572917365,0.6899496389349661,0.6859457927329332,0.6915848301151873,0.7019905506743943,0.6967980449612304,0.6702675941910471,0.6184294331819672,0.5542475732458193,0.4865194734497197,0.4202028292199428,0.3666154619627887,0.37215814093814925,0.42852102603079933,0.4881812674108662,0.543229002936284,0.5938905859434008,0.6356577022262436,0.6826605224743995,0.7389051435179742,0.8070146154417398,0.8813957288247661,0.9557197853509122,0.9999999999999999,0.9505043519002697,0.8716387936335556,0.7905401745278869,0.7061072172767161,0.6216104546256441,0.5384068340406812,0.4598465869041889,0.3827303981081699,0.3887128221056114,0.46768020260918586,0.5461333345013061,0.6256158792711611,0.6985270302456325,0.7340553035151883,0.7188630617027719,0.6989435474969549,0.7087391663743893,0.7119061741722491,0.7103983661924685,0.7014227264951908,0.6945287283766656,0.695159134234055,No
0.33286572154769556,0.2629381665489148,0.2021057124851411,0.16959657445007115,0.15117773655244782,0.1251316822116766,0.07530147216336602,0.030594643528330634,0.0,0.0009159011714774401,0.04215212523793621,0.04831194253571569,0.021377302147017607,0.03582156702525596,0.090362167467684,0.15410593386830973,0.21043909767182112,0.23219526315120764,0.23277364723459382,0.22689076505542216,0.2331533309257865,0.23246446036880708,0.21507314532398447,0.17173042457713095,0.14401165930599324,0.17459098768175907,0.215076160785453,0.2320752699472195,0.23148156121324437,0.220671375346976,0.20754233535177424,0.22663702089649695,0.29573696453809917,0.3833248049133149,0.4669520893406751,0.5561470113114473,0.6395280941423269,0.7240103473315573,0.7233221819776838,0.6392572765910292,0.5633420790520709,0.48118302180963135,0.3981771513168526,0.31794070593734935,0.24134716116866084,0.17701033474728778,0.13840626431820535,0.12356787140839853,0.10895018690190716,0.07656224694231795,0.03333073587809099,0.0057501084669313585,0.027214901512849554,0.0772740129038334,0.13596253520946555,0.1952980471438519,0.2302618049807188,0.23502996348899807,0.24383054944045424,0.24569331210108936,0.2445433665009813,0.23404082566671036,0.2038565798128038,0.15986767962977066,0.15763381037464197,0.20781950228486146,0.23997378419861448,0.2547512210500147,0.24736139550119152,0.2430583058438054,0.24107982251263316,0.28882935557380973,0.3720292841035089,0.458251440236628,0.5444344029769008,0.634644573906096,0.7178830622865229,0.7945211460980366,0.7675272640948225,0.6784964118215127,0.5981102655037833,0.5193698571281276,0.43720225488853415,0.3554196880108884,0.2777304153091493,0.21270729019430523,0.17473404434807893,0.1561893051990182,0.13366840601884422,0.09880795960368927,0.0565632439821353,0.02937568784678013,0.0574120663269424,0.10752455337733302,0.167791674035646,0.22774964915782658,0.2493355921306173,0.24150101532390966,0.23760462561255968,0.23802856098621694,0.2342839977473934,0.222215946876543,0.21424347366541774,0.18365227755091795,0.134984031943838,0.13486685875101423,0.17811282245524285,0.21082404112743758,0.22104794449183096,0.2159179198274701,0.21000776832694745,0.19651815545519624,0.20623984325797196,0.26754349927670074,0.35034570361045003,0.4402610594730543,0.5235440355159036,0.6134281587497352,0.6955123289095237,0.7251373175232645,0.6508535175112853,0.5875481298776422,0.6222753297431087,0.7046576212539375,0.7960421860129385,0.8816913023458752,0.9513635996115186,0.9429048708907086,0.8661942446518809,0.7814669492173352,0.6960570642500545,0.6093932761579917,0.5244044754138482,0.43687114120145076,0.35004143504732865,0.26835592724504687,0.23796067323709802,0.2572753940429393,0.25847321408296264,0.2630642796706071,0.2537584496044316,0.22997987522876895,0.1920421379702426,0.19829225915239435,0.24299778132031524,0.260539576573356,0.2673192899335435,0.2762909825355746,0.28510802151787473,0.28718979254861,0.293379788479762,0.27671722073281635,0.2308966309813909,0.18265912646695437,0.12629115154148596,0.0840280569722689,0.1053009251795427,0.14441833529334303,0.17613187784144002,0.19457541371318898,0.21904511175459307,0.2742580890555635,0.348803824717302,0.43182658171795985,0.515105998933117,0.5940673295771302,0.6696899524769198,0.7514261469176182,0.8379741119397661,0.9184973113019692,0.9821716075066858,1.0000000000000002,0.9332336661017291,0.8489938569038917,0.7748623685562068,0.7017596434800295,0.6161158246021345,0.529214989444142,0.44362587122808184,0.3551663337830069,0.28838888732958434,0.27841305999477917,0.28133409323168723,0.2883298715529756,0.2846293641844575,0.25995681844467966,0.22201176656740862,0.21536725344067364,0.25975645612355347,0.2748336057071701,0.28139593991124645,0.28242648824536065,0.27495645626441667,0.26870172290962624,0.26228964811738864,0.24977108866141484,0.20335290685737317,0.1454252414023176,0.08720526614020163,0.04949198678321398,0.07488819541994696,0.11540989102351529,0.14787528059122135,0.16022635080616454,0.17894379397181592,0.22902404550466104,0.30222670411765873,0.3822966823919407,0.46586019188453576,0.5476118822926568,0.6229644939599981,0.7030893426240483,0.7879064039192996,0.8731509418352374,0.9511690935217534,0.9629283837836791,0.8919511299260441,0.807745453801288,0.7214537076021805,0.6334141560081761,0.5488233184177227,0.46048481801774543,0.3765255736991635,0.29311668992386175,0.25252097448830013,0.2632938231088171,0.27322086753292485,0.27852525699654507,0.27124882538652484,0.2409902554081511,0.19708426148699987,0.21241752494337973,0.2568246784852375,0.2708913918342184,0.27216171022386093,0.27455979880252523,0.27084897853979717,0.269837355410655,0.2702698530801848,0.2689177128519926,0.2382615674312465,0.1840562910467567,0.12363793574164328,0.07531872457938249,0.08560018132886227,0.12637657873392372,0.16772734810661594,0.19169188869960796,0.20440016454925303,0.23183319487059917,0.2996770507608131,0.3810778875732612,0.46351598391149795,0.5469849785501777,0.6206150319508785,No
0.558888076308899,0.5188347373090487,0.4671301952567657,0.40887045616136164,0.3428088249550456,0.27403051334427997,0.22862804441069806,0.19648033095810313,0.18530884921619983,0.2393555390734663,0.3023970396485802,0.3717675805832201,0.445461245966577,0.5181558031142279,0.5679542734564869,0.5911074835535393,0.602046595494498,0.5938506022222623,0.5913923312862781,0.6001379500152317,0.6127540843532298,0.6218467379368973,0.629267940570595,0.6372375922747138,0.6325894963624268,0.6012659475332021,0.5652735713698844,0.5758808158953375,0.6225861811345401,0.6458850414366333,0.6195528529449017,0.5460581505032056,0.4717957293377901,0.37534075937970424,0.28120905474160884,0.1823012938081272,0.08169684395639298,0.0,0.0012418029109917406,0.09427403999888972,0.19826258210667036,0.30228651446616195,0.4032766241474579,0.4960389213108092,0.5989622992157793,0.7019040044366476,0.788729203895566,0.789930650208986,0.7150192931279944,0.6521948663216472,0.6155397772694922,0.5962184599403135,0.5720873274986562,0.5353175910401509,0.48631074225037607,0.43195289870929465,0.37220439917317294,0.3084368953192571,0.25002616246706855,0.2244317672467282,0.2565019975987515,0.32388792723378024,0.39324325057911014,0.4626290977006444,0.5319805831649795,0.5721025055412288,0.5838629479548219,0.5909924933076607,0.5911207164623071,0.592028919679864,0.6030530672628547,0.6101993400157351,0.6211751565421102,0.6220737355704886,0.6276246650395187,0.6228134724264505,0.5862989223256048,0.5583792646845833,0.5828295939165591,0.6307851082903044,0.6595048615368702,0.627394913368003,0.540061703679034,0.4432510280634936,0.3496438143499041,0.2483785294089269,0.15595869553524522,0.06098234814676462,0.03604736024470889,0.10888844669867326,0.2115857870767044,0.3156203505261581,0.41965577165344414,0.5236357161040568,0.6223472546764743,0.7167240069219829,0.8154403041150837,0.8260927273785217,0.7457635774477394,0.6772040816587637,0.6265266006318295,0.6024774418063157,0.5843093182375572,0.5556134914211668,0.5155246817497778,0.46029893918758824,0.40079439759506363,0.3386890057832932,0.272738929794514,0.22283645425252696,0.21722878157584868,0.26725470827585807,0.33600644843987504,0.40929271126533284,0.4789879693446564,0.5409469593669198,0.5728942745494872,0.5828401533862213,0.5828599012321163,0.5759899387152585,0.5837959657298522,0.6001557415790375,0.6002973809438747,0.6048049783683977,0.6111088181798843,0.6107499702092258,0.6163811984624108,0.5880550349026314,0.547542661966556,0.5476345453841163,0.5928718610273365,0.6338806940112638,0.6619212579287643,0.6924155558285545,0.6822766148486339,0.6418083375270169,0.6048564670740377,0.6320622713259911,0.6573106030118658,0.6590579488787249,0.6570047327413822,0.6453653802752475,0.6435635408513141,0.6388554033282998,0.6306470641604529,0.6238325054966458,0.6281211584368338,0.6269115549334592,0.6148587085800681,0.5916192310813206,0.5401688843683374,0.4748049084590378,0.40416475781548233,0.3310215884209391,0.27019451690354557,0.2952688372665866,0.35577700250459343,0.4238856582165049,0.483865875981216,0.5385135046515013,0.5863087333719033,0.6181022872942428,0.6394348986798131,0.6567127456619042,0.7013422903548758,0.7719264740173075,0.8584203126678827,0.9449713053755044,0.9999999999999998,0.9558502775515778,0.8665787674343097,0.7654940995114716,0.6714924456989626,0.5723371425577624,0.47008757605431106,0.43497687954456876,0.5135823344892654,0.6080016211942147,0.6893295218217041,0.7131334570299395,0.6995484890830241,0.6610636218860872,0.623347817173735,0.6455041759590683,0.6711491491750696,0.673243984793148,0.6658236155587416,0.6651999645571618,0.6550657989358049,0.6440423205787795,0.6345539451566029,0.6311755516543462,0.6319363430571825,0.6333328218588494,0.6333404775803235,0.6258388089061235,0.5947378834734829,0.5369585276277584,0.46815084775719185,0.39873531935602124,0.3255720744218229,0.274133242541154,0.3048942842235298,0.36238216883338015,0.4307614126449988,0.4907514809658162,0.5391275167619176,0.5852142373882729,0.6179323736311255,0.6397699056819988,0.6607477919122486,0.7084159260374665,0.7826699032748354,0.8703411513266717,0.9555677464426318,0.9874701735101914,0.9172898600770896,0.8251788968514073,0.724060547849106,0.6201683176176684,0.5247803441108181,0.49223217918241313,0.5506999471422682,0.6346241169014155,0.6965468284633254,0.6982524605569262,0.6702954786548705,0.6256335021788584,0.6371788525060007,0.6721065814717175,0.6880520951202411,0.6769939628848707,0.672644580551361,0.6609390258339227,0.6532473744181406,0.643964178804955,0.643623544887103,0.6446908046831104,0.6477529516511937,0.6323826765989622,0.6172645392497371,0.5683183993665601,0.5042178412570106,0.43167704558600417,0.36098328910405475,0.30362644785838433,0.3400785276747438,0.3670519666303058,0.3213113693844598,0.35276900960565327,0.4130480004367063,0.4792773063295759,0.5346888839348958,0.5789319985615633,0.6157740672818213,No
0.7223270736218971,0.7365606989311512,0.7232890977112215,0.7207387124835577,0.7327225093287696,0.7409808985971756,0.7333565553655933,0.7062254824218092,0.6926923923135367,0.7238946837260846,0.7621895125797934,0.7635957396418155,0.7074524223678592,0.634094436070315,0.555786465649848,0.4793767871712834,0.4024454005498056,0.3238856295469855,0.24888412418827133,0.1700902187071449,0.09545483795211596,0.02028877177373467,0.0,0.06278669961981431,0.1427645448285071,0.2185510185761581,0.2961973608118763,0.3770001496313783,0.4577321728182796,0.5343309237573638,0.6111040249840168,0.6918466195684269,0.7714266363511552,0.8353518706702402,0.8209301229566562,0.7693370694207003,0.7328983374515302,0.7003829948529953,0.6650538379140586,0.618194001844068,0.5996261771782633,0.6318082297070241,0.6737454460404905,0.718177512486791,0.7449055776245218,0.7329194977095433,0.7274477966444718,0.7456144601627112,0.7651788539716643,0.7757751338293591,0.7693354637073885,0.7415821755060649,0.7326487919777359,0.7605152609931672,0.7886832073850841,0.7762777347257636,0.7083888169216387,0.6280247344819846,0.5519845476201274,0.47464845544914536,0.3964410693610746,0.3211667908540238,0.2410616121279392,0.16579212578185742,0.08821824419281032,0.028587747987552592,0.05318656971669233,0.1268999189983887,0.20315048267165403,0.2838426587353742,0.3646854178178499,0.44393509052539926,0.5186132040079002,0.5986950087052293,0.6795440239523826,0.7603945145574392,0.8405271266859052,0.8838911615942263,0.8380014889618667,0.7884449822334941,0.749829571013538,0.7139079329483818,0.6670575195334795,0.6177529332292445,0.578638796016646,0.5851583785189033,0.6263441528784565,0.6739601132375014,0.7087537897018975,0.7132780830451494,0.7052617677007759,0.7136198828428187,0.7264820392270591,0.7325339458427241,0.7117878128767358,0.7025034333198511,0.7312803771668931,0.7656434298853579,0.749026663991529,0.6828388662136279,0.6073903374418971,0.5375185086253019,0.4802565718262545,0.4260669338535644,0.3644877066783564,0.28718699037127615,0.20890003786404077,0.1337508158961801,0.057688738584206534,0.008936411267558841,0.05129075522181448,0.13082812380663433,0.21167746060427273,0.2925256207638607,0.3724400092133714,0.4470463975360831,0.5265333884870497,0.607376814103547,0.6873571812171685,0.7619848397305832,0.8390807332542928,0.8606306282014314,0.8055998590077779,0.7579380687561453,0.7247205638721775,0.6888148358230363,0.6409554969501577,0.5904981022813517,0.5572462226924136,0.5745331064686666,0.6203317740304629,0.6661914129882468,0.7031852750082433,0.708551653972152,0.7075898490827327,0.7201532893538319,0.7352247043630405,0.7536968921148423,0.7609948042145155,0.7473803103228612,0.7315226247589407,0.7321341145832266,0.7341575691191972,0.710038212119635,0.6695295562345432,0.6208800612530473,0.590561976983382,0.622283097793653,0.6719307271198783,0.7169342443469539,0.7499642047528557,0.7854526280849393,0.8414801091085325,0.9064705069284852,0.9580019000022221,0.9283654774476714,0.8499358212559497,0.7727677253944186,0.6965505904457835,0.6158637495913538,0.5356214285148552,0.46845277658088313,0.47916304923401454,0.5548587778486679,0.6296205208369162,0.7044037969523459,0.7690572057396204,0.7959562582035883,0.7841312157301553,0.7476544490106799,0.7282291466027061,0.7506804079185255,0.7584695533608669,0.7482892887853086,0.7323523170661664,0.732040075082402,0.7445982100056067,0.7322456721806464,0.6975404436465579,0.649563847248655,0.6092129508873393,0.6164632748585844,0.6637655655957316,0.710856644571452,0.7523502228119717,0.786784382802404,0.8331425049110769,0.8933585999744281,0.9592423142423797,0.9999999999999999,0.9547316913683289,0.879510836882815,0.8036637789900268,0.7230388559400577,0.6429242138790802,0.5682121748118864,0.48902834263859385,0.4081867826527178,0.32788283583011657,0.2823940306596334,0.34029736028795166,0.41681682002408815,0.49342269500005764,0.570828577070193,0.6465506960367472,0.7223146512303934,0.7909990817620679,0.819604838372369,0.809073751742546,0.7774584631206131,0.7635145398430297,0.7879219805095362,0.8012483977550081,0.7954090193953999,0.7761767729729768,0.7576329634693869,0.7568326166419442,0.7706061747318481,0.7570792642446104,0.7157771769753983,0.6726605091893264,0.6315141231239355,0.6417761234236848,0.6893382712265724,0.7223755886005986,0.7555578583123396,0.7923087458203385,0.8515857041467557,0.9184173784448627,0.9603053237912208,0.9197222144122549,0.8468001156814743,0.767992289564383,0.6871958855547459,0.6093110689189006,0.5337273673409894,0.45319150681978193,0.38267072181039496,0.40453670740426484,0.4830819643338239,0.5586158434081973,0.6358314821975283,0.7095451857698453,0.7736923986961414,0.7987905705116128,0.780772543990866,0.7402906856782724,0.7263693606479077,0.7515065839567082,0.7658191650951042,0.7628292978126966,0.7541359998951577,0.7462138333768559,0.7619645740990254,0.7572752742211651,No
0.5572835976156947,0.5980769497560701,0.6542525638581964,0.6926560428541719,0.7429860408739593,0.7894472380789368,0.8159394860768214,0.8147945087540676,0.80369509629304,0.7931537479730675,0.7935367557112349,0.8001801214091593,0.7885083247430373,0.7865128185799788,0.8109681049832216,0.8412823174258282,0.8433769158432431,0.7934628928232281,0.7211765735578815,0.6441710705802035,0.5710353902625305,0.49317383925409986,0.4162492362536496,0.3425404507553008,0.26404798871701096,0.19071077194553399,0.11421330355893888,0.04415169920611339,0.026686497338966664,0.09346985877352854,0.1728556724275334,0.2523213074087428,0.3292114246119061,0.4029458799542418,0.4820517081391409,0.5615423267943482,0.6410331312964337,0.7205236174371894,0.7987426926576857,0.8407706105136545,0.8434476208933901,0.8306154235069674,0.8045951769515267,0.7671280956737616,0.7188086018331659,0.6750836934814992,0.64581154309328,0.6594291320754466,0.7078405910847598,0.7594551096777837,0.7978960817045637,0.8095776183040755,0.8049411281481624,0.7957185057156668,0.7941773100524707,0.7989413995842092,0.7815786692624609,0.7800676356603224,0.8077731950840299,0.8360382008207052,0.8404841481332095,0.8100905778037233,0.7397929479170406,0.6626782046159454,0.5896354670003787,0.5117977839543935,0.4386894328639237,0.372264524930914,0.3136355761803674,0.24383265666045306,0.1664419751008238,0.08972452225362426,0.01921318562400376,0.0,0.06708652138952209,0.14324807260890737,0.2175144582128734,0.2967678088572546,0.3762586133593404,0.4557494178614254,0.5351162124700932,0.6102339874023213,0.6855588530892807,0.7647168783685905,0.8235817152080172,0.8286227564554225,0.8314411502971502,0.8128533185801754,0.7818610955036469,0.7377513910959741,0.6954708563653453,0.6621122053127051,0.6696324788492702,0.7158342246722798,0.7659751802219743,0.806972534714387,0.8227195884363385,0.8205137060342964,0.8110249216209782,0.8028564832354761,0.8058389406433977,0.7933147369491411,0.7830563355811357,0.806857975640271,0.8371058333124526,0.8378887006447366,0.8082480478427789,0.7392580912366227,0.6632075063137832,0.5900373308865878,0.5130851469132744,0.4398544895899923,0.3611142400446643,0.2849949081687505,0.2106242896122319,0.13231679474149705,0.059589357513200825,0.0021714561094489104,0.033282734972940764,0.10842806522690596,0.18204382867470803,0.26111408401921676,0.34060464957531733,0.42009545407740223,0.49958625857948724,0.579077063081572,0.6585678675836588,0.7380183038602526,0.8086783923118095,0.8285225946135124,0.8343933196780171,0.8215157273932288,0.7915762957715278,0.7470982738038858,0.7001629629232913,0.6614660424431738,0.654220925978614,0.6910150861253508,0.7426226241404374,0.785836051376918,0.8163373248108532,0.8199124638203663,0.7838625773814099,0.7341115570962626,0.6910738537565455,0.6978930961201757,0.7396624192194887,0.7843413716991958,0.8262802458573422,0.8510888040008893,0.8611792433474585,0.8800801924713713,0.9389918073740045,0.9836851902046964,0.9403373716278849,0.8619764900978002,0.7839811117862916,0.7108723714795611,0.6322644432824951,0.5543568001262671,0.526196873220707,0.5913249146409336,0.6663417723590035,0.7412589019664386,0.8145195771476621,0.878101610801719,0.8828177757574105,0.8702959052424726,0.85619645909056,0.8218728761469223,0.8141513187246914,0.8295718244952821,0.8264239859324201,0.835333478782158,0.8456888800684208,0.8484995483792035,0.8339141477393637,0.7951068397379515,0.7449129003696979,0.7008974695767323,0.7030054277480438,0.7428869399209732,0.7867357135947795,0.8244522279762359,0.8490105787137361,0.8587759505455179,0.8844582800740206,0.9493697268471633,0.9932050741874996,0.9465793764300645,0.8678156874242637,0.7886046213313038,0.7145080741603922,0.6380717387540946,0.5586302254616295,0.48516716845412233,0.48870937033798834,0.559950485375651,0.6380881399325238,0.7111250878216488,0.7876819347615356,0.858674512584233,0.8990509629959988,0.8727199253397291,0.8631653257519543,0.8388998681751232,0.8061217426245422,0.8096581941186329,0.8224214731817723,0.8235233854028856,0.8301021690012782,0.8379791239354832,0.8326030797434614,0.8139113362085784,0.771074824732475,0.7164677021152448,0.6785628098073897,0.6971431035848952,0.7418666621414653,0.7879327873953175,0.8257116950569336,0.8520831466108274,0.8694313500935502,0.8814890281816441,0.9372905640599902,1.0,0.9967502546298386,0.9250531656730423,0.8456050546473906,0.7661142501453055,0.6866234456432168,0.6071664947050976,0.532191277807256,0.5130310781704026,0.5812494298217403,0.6556673046696084,0.7307023585201697,0.8034689219596478,0.8739498826943042,0.9076028207371842,0.8795470970358328,0.8676192180099365,0.8391836750242316,0.8128607052036712,0.8134391914241728,0.8275638779349836,0.8225439628679896,0.8186942326155024,0.8274892928386588,0.8377294391249337,0.8396661794845306,0.8228765337274939,0.7843489571490181,0.7360717684456464,0.6878019339549386,No
0.9207966931740282,0.9242338602529722,0.9246874290254031,0.9264410191127846,0.9314327542832775,0.9298143018176147,0.9187120863266506,0.9057441125677413,0.9304987548977802,0.953295343210215,0.962548350836305,0.9406152866399012,0.876837199010508,0.8041863282272076,0.7298061056366053,0.6557062339868899,0.5867334264277663,0.5152618773569805,0.44090732035738534,0.3671147068714671,0.29886609079907855,0.22641239664135004,0.15519415594710884,0.10995792055123121,0.14357760889319426,0.21343383728790088,0.28231945733238406,0.356399604930847,0.4306162180554076,0.49856739983834963,0.5567917104267616,0.6279973757919061,0.7017361947403397,0.7699591746663194,0.842177779625282,0.9023609213542098,0.9227231344068586,0.9094727669437469,0.8922900708847584,0.8685404550016446,0.835064943713311,0.8097745481476767,0.8088803756515025,0.846735931428869,0.8942421500920722,0.9311232756072026,0.9364521348486915,0.9236136557243152,0.9100765804081933,0.9076112979738123,0.913845078201677,0.9146948940711784,0.9150437415552145,0.9155791225322062,0.9111853302717744,0.8909581214375909,0.887819013675906,0.9143224002134268,0.9305909742873063,0.932402986645502,0.8924899990590159,0.8257593489372715,0.7528745033597096,0.684766989773779,0.6119919757588609,0.5399621483869556,0.4855630713662059,0.4363544821994142,0.38676545536423335,0.3369274981308604,0.2803036515837213,0.2122066083361266,0.138155297669865,0.06883726888838804,0.043172687258307474,0.10049498540707458,0.17406905367126635,0.2422727352093469,0.3148511013821311,0.3892089187629034,0.46112271210585976,0.5297486252499298,0.6037406298119367,0.6774372723758101,0.7455862133734298,0.816838469851841,0.8719579029051449,0.8940259288407476,0.9105276546630577,0.9069840183203911,0.8800047817768989,0.845600312323144,0.8152451811019098,0.8152741744010269,0.8559339147237816,0.9074186148321851,0.947124235089846,0.9589750966180829,0.9471925599841889,0.9331416533599014,0.9316276825033895,0.9426469336142892,0.9452842538587404,0.9482660916557014,0.9530370679320105,0.9368391139534488,0.9011496810009297,0.8928270124178806,0.9187212960657914,0.9399538820219328,0.9305211016515583,0.8826993434426179,0.8155429761465619,0.7460619822373015,0.6758843861453222,0.6016222544872184,0.5296559238966257,0.4610721858312419,0.3870921115214302,0.31292902459483907,0.24367226289497357,0.1725363722611255,0.09915111207344907,0.032349489589463376,0.0,0.052926914761553756,0.12037124037553948,0.1851140307572936,0.2510807235380732,0.32475483506817526,0.3932041908698929,0.4653687911143456,0.5397127409299197,0.6113218577693712,0.6801065030924175,0.7503617575793534,0.8136567974666545,0.8552406660307265,0.8692183057425104,0.8909574569557389,0.9181694231501479,0.9102124659251002,0.8905596920233417,0.9236370386638092,0.951173443717633,0.9423108863765329,0.9134787045508724,0.892994369820656,0.8849323990885466,0.8512554471284207,0.796673793009775,0.7284497021760378,0.6573423717001593,0.5883206939653819,0.5142730612457164,0.4458528808210408,0.43451578306259164,0.4890025937121033,0.5604991099084365,0.6348756669946521,0.7091203915373264,0.7789238975188167,0.8475684931247406,0.9144011996015121,0.9645111377238206,0.969582064722102,0.9699005249219322,0.9407571733754557,0.9237787877486047,0.952751707008772,0.9767842966187797,0.9808789929924734,0.9790443386360187,0.972941485960772,0.9677694864508485,0.9616365413468589,0.959663415704234,0.9706280252569573,0.9844336052018706,0.9859268233903901,0.9691063278123221,0.9271310302452546,0.8754733059948366,0.8431140933226552,0.8636074713680088,0.8987426275338365,0.925981573474805,0.9416364009263899,0.9346489985500103,0.923911461534812,0.9015353436526327,0.8562649360427977,0.786841158303715,0.7125243990164593,0.6381662735503962,0.571032143340603,0.5774990048308398,0.6478833459040126,0.7213088706289036,0.78931966775212,0.8617314854517028,0.9292605435937632,0.9838391402106826,0.976536153328532,0.9574494228109468,0.9468129187288344,0.9219666388944944,0.921817941250965,0.93736969537872,0.9412176788040522,0.9447373126510871,0.9447997921281671,0.9377365816427753,0.9338802957864919,0.9348375207902376,0.9506713948522151,0.9645716652721114,0.9639030641327432,0.9345751466548745,0.8903291832276025,0.8468832164000849,0.8403187078838653,0.8698775188542499,0.9001451104098411,0.9210641695732046,0.9390947188522515,0.9474389571236607,0.9315813705149208,0.8810793297502909,0.8142612954847089,0.7464988156373241,0.6736814462633282,0.6075786567162363,0.5492908423865127,0.4774668636404824,0.4485489066713837,0.5102265433460601,0.5843516438775397,0.6537003124577939,0.724718744403312,0.7970536905979692,0.8652236117567446,0.9342823486745283,0.9934555911186597,0.9999999999999999,0.9843660283585675,0.9732125922009683,0.9447962303227072,0.9360144469555131,0.9560928542893182,0.959253181675429,0.9554212933122525,0.954379907756986,0.9494193065941215,0.9468580461750161,No
0.7878377011996232,0.7893096093346308,0.7852217853077987,0.7993775326499786,0.804977284178404,0.7710897682861559,0.7093637206884016,0.6479791649498041,0.5861146647241844,0.5236889884318607,0.4628321908463116,0.399543655909459,0.33979959326096415,0.28893654636394067,0.3013887484690037,0.36172975681298075,0.4248483142480913,0.47744090623983776,0.5358583221110422,0.6004296093800634,0.6606634910714597,0.7236907530400067,0.7753697091155678,0.7875361403670367,0.7796073147605516,0.7657204822089614,0.7442999043522067,0.7111903629191301,0.6870501760050436,0.7046447593516205,0.742582941142196,0.7708422268304476,0.7820355627605735,0.7865999491037354,0.7855454198015992,0.7851843647266521,0.7788913916079725,0.7804493436778792,0.7950474809493753,0.805105416185405,0.7824803117581611,0.7266573038149504,0.6652743260322831,0.6050837135046505,0.5418155538914893,0.47671338453871553,0.4127875555305223,0.35564442462114926,0.33790506765215905,0.3857159195181014,0.4477728471775085,0.5122867201054939,0.5723391849729758,0.6359039831668154,0.6977971545176538,0.7578045132077156,0.7986763383274906,0.796515292032806,0.7878881973362948,0.7711121211884069,0.7439291097641234,0.7097393129844594,0.7006950480451475,0.7274925191758366,0.7645772038662471,0.7946392831544418,0.8144357871648014,0.8217980447566626,0.828569184155699,0.8280648849056387,0.8225843217150148,0.8376808804798024,0.846820057270143,0.8205383949150573,0.7629673212432964,0.702480422645976,0.6426226158773327,0.5799244950918192,0.5200383313962433,0.45598487576815266,0.39500496622674247,0.34224818223819903,0.35466197311234,0.41186361800248444,0.47563767894100467,0.5372205000822128,0.598941054273884,0.6639074722107916,0.7258553849342055,0.7871357785945896,0.8469281034985947,0.8747625096090998,0.8773263213870919,0.8782385124084249,0.8626878803097238,0.8370892558010776,0.8264009189243704,0.8526801056881217,0.8961349206737197,0.9325393367749968,0.9588418709960298,0.9725359056798166,0.9741689550452963,0.9760357197627016,0.9531621220787394,0.9203456256511011,0.8907169726629844,0.8404394302720384,0.7916755667855215,0.7514553071215251,0.6998425952453824,0.6373393908694449,0.5774669065785647,0.5153117745105797,0.4660783692805323,0.4169394306591377,0.3579403592034273,0.29857143538325454,0.23800164574921384,0.1781601789227601,0.11453203532986517,0.05352262495569421,0.0,0.006022268426668476,0.06189145227999587,0.12595025629552942,0.18606955658647534,0.24957358547942426,0.3146851899965403,0.37980600376269275,0.44425071811518363,0.502791931358457,0.5514125509610202,0.5807342171987735,0.5979190398820347,0.6113436408541086,0.6016649575883886,0.5742610460219777,0.5762033958520072,0.6110950908816102,0.650914854793935,0.6831164426849123,0.6664601172519213,0.6286386345737054,0.5952107675057581,0.608130557207941,0.6310828975095317,0.6326169572113085,0.6208607460371736,0.6041532905833933,0.5767740380530684,0.5291349727381982,0.47213502457255724,0.4106980337150536,0.34967171876336306,0.2848105919391876,0.23318347900900532,0.26008645586476725,0.3198396106773594,0.37981718601167863,0.4379296055692154,0.4964659295073744,0.5566552549186905,0.6202610145414851,0.6801698611639333,0.741972473216816,0.7876084501578262,0.8299886889945136,0.8796839638863283,0.9226904706644927,0.9495780943271503,0.9840635879365136,1.0,0.9982880187654459,0.9982395420074097,0.9863505542580084,0.9670194609752367,0.9360459453679908,0.8971910013050364,0.8588126660119508,0.8601154406080627,0.8845725492958743,0.8976237358507906,0.8993451936034718,0.8999032491287873,0.8843467902702069,0.8355750041661618,0.7714869512259734,0.7063671416953474,0.6415628926224115,0.600768824878819,0.6429823396143843,0.7027793175361652,0.7650425970902957,0.8229886594610536,0.8644315765419996,0.8679130705665443,0.856512118653111,0.8544546696781397,0.854875019429467,0.8462141686998075,0.8420314510344782,0.824665833005263,0.7993126761803948,0.7649811722521138,0.7329959203345766,0.7448203991061413,0.7759067138936435,0.8016005983980481,0.814352846413176,0.8238561086945748,0.8330982948244618,0.8089711183424584,0.7522939065931558,0.6924970281241285,0.6288023493805535,0.5716984358266421,0.5743076960786928,0.6343763361494399,0.6940969326019559,0.7541861166899009,0.8109611142688156,0.8333766509266567,0.823564433758766,0.8068485382569193,0.808687239229186,0.8111724650171557,0.8113095530260099,0.8106932317075919,0.8075193946984272,0.7972384841878934,0.7714987747879798,0.7395189224556202,0.7218299082442452,0.7495187004206019,0.7786271172182135,0.7951195446858648,0.8069484706060528,0.8143053698746685,0.800499016434135,0.7547317795224733,0.694921035673367,0.6351080923890979,0.5713822317080339,0.5258324022590635,0.561303233087914,0.6218247885013684,0.6831371704973026,0.7423542514762451,0.7947222174704158,0.8255784550972014,0.8264695387576979,0.8143520882167374,0.8135540152534166,0.8124522465932227,No
0.8585658619220343,0.8652183604355334,0.876707082744748,0.8865500560469829,0.8934649860744678,0.8976637963749242,0.8789572712250387,0.8845551225943739,0.9187773498891428,0.9355748446569195,0.9202275532859766,0.8560884934881156,0.7838384810398812,0.7065743039330529,0.6338312757617225,0.5589343847933369,0.48107996308875045,0.40319160706306445,0.3268850148463033,0.2550896589942485,0.17794975279635317,0.10208059044309148,0.06321551175991458,0.11067979234533498,0.18543152619233472,0.26328694550156573,0.3395015381871258,0.411331165005431,0.48853593348179014,0.5662892774040066,0.6397791985988185,0.7138426705840791,0.7883008767526848,0.8469967333586731,0.8987318785917954,0.9149922162263743,0.8951861936830842,0.8612575049056724,0.8149881051854085,0.7635480194642382,0.7103130395463321,0.66417153185111,0.6603526209264551,0.7078380275372661,0.768434187844702,0.8204514207304064,0.8685882364438454,0.9135167250021324,0.9218657114870258,0.9118045098035535,0.9159444422951765,0.9297020644594448,0.937898530098647,0.9432631247267672,0.9369839310697509,0.9188303476976548,0.9341792076699836,0.9615418011369269,0.9509014868410383,0.8904650136460189,0.8165330755838808,0.7437378756210987,0.6660962359501642,0.5888873560182485,0.5170534973061139,0.4408471801014382,0.36296300734246245,0.28607138416692535,0.21438285987408012,0.13778803651936167,0.07044389854521305,0.08154543407994819,0.14884920151711956,0.2256268225420942,0.30351962309382274,0.38126538966185886,0.4546807690300628,0.5288355760260105,0.6066535033888861,0.6838777375771413,0.7557296895587707,0.8289917251830009,0.8846666795291743,0.9037789824493588,0.8819301699834216,0.8434791229249284,0.801047705008271,0.7473820135867107,0.6914072842701505,0.6378129648085208,0.5940252636217779,0.597224258101103,0.6470763262968647,0.7066838616995811,0.7686833580483236,0.8218136938475075,0.85459793768146,0.8504136644340378,0.8406974104649526,0.8443786437697686,0.8514749045467828,0.8558480251078143,0.8473895416042242,0.835629273578799,0.8542522840138561,0.8765615294035917,0.8735825047399296,0.8175589506757562,0.7433275363405843,0.671304141327488,0.5939309434323513,0.5163817632046316,0.44393489656995355,0.36866488451208723,0.29079650860267847,0.21291269406998337,0.13691702713617504,0.06506591021105568,0.0,0.01819967390416044,0.09038235558916619,0.16292077132079663,0.24050047953188758,0.31819415851179267,0.39118487276705594,0.4610459587570911,0.5276343499927728,0.6037966245761613,0.6755175807200194,0.74961850380248,0.8109396496653042,0.8480520447767285,0.8439314181299916,0.8111194039575645,0.768638114292414,0.715429986975591,0.6598724046123542,0.6079175549713228,0.5774954324555063,0.6045533876884194,0.6614689848095586,0.7232809150537879,0.7850592704625948,0.8370951855486463,0.8710491289185821,0.8688093373703883,0.8688138534346731,0.8808087418525038,0.8990127201130326,0.9107229774150251,0.8982281268864655,0.8913385062161535,0.8984841941981773,0.8890429063710096,0.8497975184118102,0.7935036647476169,0.733175310546253,0.6742204302626232,0.62175645638316,0.6298301794200681,0.6826473688466922,0.7370056969982973,0.7876639211344764,0.8312134649450315,0.8639227797307772,0.880196752698095,0.8664417180588845,0.8240286754180027,0.7635886622446405,0.6929618586034244,0.6178747887840487,0.5579428120121747,0.5959382608309335,0.6730015675343052,0.7470643187916751,0.819985551638775,0.8903256614872613,0.9337076308792519,0.9145183714927195,0.8987485523186701,0.873936178158088,0.8670229525863481,0.8828839110521801,0.8793448868439754,0.8759505354004343,0.8668575086955791,0.8698555403152838,0.8815199122750393,0.8708888312535509,0.8336485389331202,0.7757177111464205,0.7172710546074769,0.659437827146741,0.6311679187805855,0.6723858004027895,0.726199661701073,0.7804742418949481,0.8319977098215566,0.8730423259642709,0.9086196211143437,0.9305051744785217,0.9197826182518553,0.8778451572434961,0.8101600196385049,0.7383818031240162,0.6727034396783694,0.6939654087135226,0.7699376610163783,0.8451381722233816,0.91651149771897,0.9814481174064061,0.9999999999999999,0.9903333388363876,0.9705286905463429,0.9492300527534828,0.9663507015853147,0.9712109661728671,0.96323646535248,0.9539901661131444,0.9443134568478407,0.9441865875451535,0.9525777655267061,0.9374289947151001,0.8941209627357442,0.8383083410714897,0.7782411037766227,0.7218298183245052,0.6914983508245011,0.731496385330587,0.7852061522174155,0.8347064854996632,0.8804260834747887,0.9151232532729902,0.9386362181335125,0.9453060932284588,0.9137758778522963,0.8600279513135874,0.789054081505569,0.7156858638648477,0.659384725447867,0.6968011339608727,0.7738697683709869,0.8487297299509869,0.9201267166313943,0.9814088653598375,0.9846850451404173,0.961515879312142,0.9363533560058693,0.9091182559898058,0.9206381318792923,0.9222205474239885,0.9145684012746403,0.9051209537318029,0.8964225841822223,0.8863569504279648,No
0.3408353755664928,0.387055552627785,0.47136713522388307,0.4909937111751872,0.39882226256422415,0.2944132464408473,0.1819159248406601,0.07857017640499375,0.022750692535140615,0.08095125764411382,0.18835369711695216,0.28902289950357307,0.37579145734559827,0.4812778896117278,0.5941815951751117,0.7032880685970895,0.7840412505186758,0.7964911122977618,0.7944259671274025,0.7747884342892495,0.7405916441324489,0.6933243986634734,0.6358608964787988,0.5680671649588582,0.4966474522618056,0.4227228027002332,0.3820520203799047,0.421828527283179,0.5058461843017685,0.5877437555201079,0.6680255583394246,0.73589638550918,0.7917129261087625,0.8110867602128464,0.8071298143567947,0.795557461332951,0.7838202545066064,0.7899097125647501,0.8055292562486764,0.8118209251684703,0.8152955612248056,0.8129216213203176,0.7771805034484354,0.7573697900261696,0.7729722501672542,0.8144403251461934,0.8418984825402851,0.8419592207202538,0.7740627991059212,0.6735183570960492,0.5622018798142769,0.45827764040506924,0.3513895009233421,0.23959063261015068,0.13984148019713927,0.08163598703338604,0.14535976651248506,0.2566142648643619,0.3693604234391512,0.47414152538283405,0.5797830693989976,0.6831627059543357,0.7612197647708263,0.7775599916706626,0.7795731150370377,0.7602931145096141,0.7250061376043355,0.6762256609918942,0.6173739722354878,0.5498671929036476,0.4771188606421033,0.40477734339916127,0.35570599015305326,0.38661346388598083,0.4653998881998853,0.5477546931362949,0.6264563659842026,0.6963696411098796,0.7534344545069076,0.76502375250627,0.763125877759558,0.7515041268119331,0.751589447398926,0.763294496040662,0.7708238449211584,0.7808211715858504,0.788374767024068,0.7725573550074651,0.7464911987223082,0.746013524540794,0.7780567700261902,0.8204164712703346,0.8303284361961101,0.8065275511343462,0.7196781148723854,0.627883163390583,0.5274696386645976,0.41643599547835075,0.30397040604325243,0.20100035420257356,0.09322678022416286,0.0,0.02195241084101296,0.0996444947577082,0.19992601333946425,0.3079845091678046,0.4107660409689533,0.5216286582943432,0.6230378009254269,0.7279413233763532,0.7773731389619378,0.7698794669355911,0.7580666327226706,0.7308539927927202,0.6932158080433024,0.6305047580267664,0.5635441914916677,0.4894094815371539,0.4143715186647601,0.35078996376193317,0.3321498899286057,0.3939187381900129,0.4756494277761609,0.557298463420322,0.6391478421827994,0.7156265418701224,0.768727195166413,0.7861922954928255,0.776697338807574,0.7639803606309132,0.75251300395455,0.7619904314968724,0.7758010848704306,0.7867772249482718,0.8237136727200305,0.8251678280622827,0.8151948007721952,0.8087379036962248,0.8120634141223397,0.8237307856075367,0.8331640936008333,0.8269580411228379,0.7942378125040634,0.7353425326807477,0.6600180168834684,0.5781812841036573,0.4960926056073065,0.4153038492576142,0.4259980003767727,0.49329489482415756,0.5684968185368282,0.6411802026351334,0.7083288991613967,0.7533500387152543,0.7844359369133631,0.8098065881873113,0.8238203043694159,0.8310733657630962,0.8664363256631913,0.8299618050931028,0.7335329303589861,0.6215311944568613,0.5094122157021586,0.4513009796164056,0.5378736246682245,0.6402783946885475,0.7487251164398994,0.8552131229359681,0.9473246916062457,0.9665763874693893,0.9020840649982853,0.8743834540277948,0.864737708494089,0.8162686990247945,0.7930868614118758,0.8151935863712501,0.8329010803764425,0.8316679364650819,0.8196980820291122,0.8091575525962162,0.8074333506906131,0.7985303791285254,0.8008956954765747,0.8067000132623208,0.8162134698609935,0.8132469632935893,0.7725215162220782,0.7078994703808292,0.6376571099189956,0.5569881059177955,0.4674373894252071,0.4358531925119391,0.49192016360680935,0.5637433646772796,0.638320566822153,0.6962101920761596,0.7449275503359774,0.7888362369801918,0.81385035616153,0.8284031928617237,0.8290303775677925,0.8516881879691818,0.8563775886048557,0.7652531625028804,0.6629200610278185,0.562989331718168,0.5887517389427193,0.6977762324856371,0.7999608782590548,0.9051332029010162,0.9720570828147759,0.936987824405767,0.8849903940075041,0.8850511724775534,0.8495852385764122,0.8156713164415472,0.8195619574741682,0.855927626166149,0.8673707255752148,0.8515520959168534,0.8478760929354023,0.836236794302907,0.8294521197913736,0.8388960374161298,0.8437113553104352,0.8538630573122963,0.8556993870214615,0.8341332928495602,0.7873971144613776,0.7226040039669397,0.6467234683208427,0.5576639801662933,0.4754241866656703,0.45668369797488806,0.5183525874273887,0.5952020155637499,0.663718819881169,0.721259333954337,0.7699976219342983,0.8104715900260895,0.8322436317428767,0.845331684086644,0.8533376488605016,0.9003862159473659,0.8900229443018617,0.7975893726704606,0.6939401211455842,0.5907580342355603,0.5683563409498511,0.6676376191677003,0.7710648627492507,0.8778748898088629,0.9741637991435552,1.0,0.9392312491488859,No
0.07301184330389843,0.13393067881189813,0.227435635673519,0.32447940109809115,0.4134774275824791,0.5004734676460862,0.5448042718950274,0.5927257928485168,0.6359546309631918,0.7172460489602268,0.77015515149168,0.7651091147115685,0.7407111464467717,0.7165037169994486,0.6845142810193394,0.6481935047047043,0.6420963583096566,0.6752727815996344,0.7185196809050862,0.7338444968145739,0.7291326688945867,0.7306312688168002,0.7207520398202054,0.7200636184390414,0.7200632140851995,0.7200632140851995,0.7200623427660333,0.7191587244307667,0.7122122832611666,0.6943002784392442,0.6748471739785078,0.6674442563560015,0.6789785984934822,0.715282228336239,0.7352555060515602,0.769412118666529,0.8012593488351176,0.7212661810321803,0.6320093061930585,0.5352991323303682,0.43940342472959104,0.3495189054092025,0.2505194107435811,0.15758804214701705,0.06873165827002392,0.0,0.0122297090914667,0.0981258688455362,0.1888691936785789,0.2882806865562082,0.3880711682927873,0.4876546062595577,0.5795586642414898,0.6632388539750962,0.7180125056624815,0.7202839903282059,0.7049897848907625,0.679306959599006,0.6542467380322874,0.6253268680399806,0.6312823174394051,0.6726169312792467,0.7126976738341493,0.719893468731513,0.7133584266368427,0.7059399684471046,0.7133173166218363,0.7304495372479911,0.7344823703385304,0.7305611685533728,0.7207285364463059,0.7242126462361047,0.722698179457518,0.6911184386303346,0.6810544020464473,0.6924238596024375,0.7270515241092368,0.7473349757135055,0.7785598734623105,0.8074121158209713,0.731387261576868,0.6403063008579051,0.5408487383455438,0.4410628725712007,0.34321587451431346,0.2543630525445608,0.1629835559828965,0.09819791192772565,0.12210742904421568,0.20650724146033417,0.30014209365879485,0.39389769258921037,0.48510932060006917,0.575624057404454,0.6684518482540973,0.7281265704782616,0.7278508982433465,0.7094727474512648,0.6851019252251,0.6580594192492901,0.6389407656078592,0.6539938346629159,0.6941854674082224,0.7273381741739611,0.7208394354053018,0.7073172890429693,0.705888744060978,0.7162157976649852,0.732794723687137,0.7285815995010645,0.7110525733168744,0.7001527613655201,0.7033883947349073,0.6918047847138888,0.6641286874846561,0.6517774609837579,0.6592284379359259,0.6924662653659337,0.7067162665630895,0.7197918144581914,0.7709342060333211,0.7442831445087359,0.6570417934017851,0.5645988012502414,0.4724383971946029,0.3772712788834398,0.2871847943858368,0.20000504673013708,0.1842725735209878,0.2606228962808588,0.35688878738138285,0.45665806973668444,0.5552859367489984,0.6443470142082983,0.7351230941866298,0.8242029305242906,0.9088425797366066,0.9459011144074658,0.8891366185399479,0.8062852491896453,0.7582850865202491,0.7433021912784219,0.714669681382067,0.7223755928140845,0.7479888485866164,0.7441335232514197,0.7412224307314861,0.7556560986358765,0.7724620152549169,0.7718457057315056,0.7690446393392021,0.7477528831069353,0.7415802846173434,0.7539646727017519,0.7683678092334838,0.7697446780948027,0.7378045540947742,0.6967890063219531,0.6927035821592713,0.7167344556005926,0.7414607244358389,0.7630751819350072,0.7739187024543743,0.7642905385800236,0.7192209219198529,0.6389666034192563,0.5486450308668296,0.452292985485097,0.3635537877182613,0.30928879114232055,0.3741350685737568,0.4700000012382799,0.566554781310264,0.6559049754943627,0.7485771548790501,0.8361626477770892,0.9258013816903268,1.0,0.971498609210828,0.8903082084997642,0.8122554033632192,0.7828234103373211,0.7588436612351321,0.7300247233426971,0.7421064030181084,0.7704115388917483,0.7726128072597529,0.771001599800397,0.7696302023846524,0.7725677254284484,0.7732434533247141,0.7739151274957159,0.7607824881933847,0.7432876199764493,0.750284806166555,0.7547474085285373,0.7545051289344564,0.739514793766674,0.6945624524368088,0.6666016222801314,0.6894483502665749,0.7147693282977037,0.7403310395492189,0.758388387368095,0.7680024406494703,0.7450302923352181,0.6743797408357799,0.5905676155920974,0.49540804131062455,0.40332938677263863,0.3101794829166711,0.23535106665424177,0.28147931990102815,0.3790771221579732,0.47457056920198726,0.5647230327262793,0.6600264700864926,0.749225173119489,0.8382185323870943,0.92874370504309,0.9865642208473977,0.9424553284268362,0.8586149879771305,0.7905967343181621,0.7625061662354349,0.7354509520645056,0.7179432936241237,0.7257024854466283,0.7498022291079316,0.7547586473690302,0.7550625586534543,0.7626010381517334,0.7583637288029803,0.7557534439959435,0.7659567745176821,0.7651453419137608,0.7781776353952314,0.779957333698936,0.7796394918568637,0.7663129357755536,0.7250407476791696,0.6915973872834633,0.7131591469530143,0.7458058093352165,0.7720551825032982,0.8022119919742843,0.8274125672996937,0.8345403382177992,0.7932919231661573,0.7156823159806178,0.6274008078252544,0.5300923398993431,0.4445979167179077,0.4272549781830257,0.4870167547793769,No
0.84507105251325,0.8534087308778665,0.8349890144376003,0.8181806711784215,0.8403030189834929,0.8773557605891708,0.891259867696501,0.8959003886105791,0.8380301565408345,0.754765181155226,0.6696237516197646,0.5847153683469867,0.5054900695044179,0.4243395168437355,0.3392503167406652,0.25413677427938774,0.17224496263570377,0.0939934918358648,0.02993018753757548,0.05429207055109986,0.1316091875980392,0.2132683155840901,0.2919165263405453,0.37671546592358396,0.46166140726594207,0.5411319626086942,0.6220159878687558,0.7068870496504284,0.7863576049931801,0.8671482467012893,0.9370796960824933,0.9255227377231429,0.8964867447786576,0.8809981288408387,0.8592434325476922,0.8275257203808993,0.7967696672638452,0.7851619574034213,0.8037026449126586,0.8291885475785711,0.8351459416187171,0.8264598304883467,0.8339025414460973,0.846525503912306,0.8382780592010318,0.8167618541198535,0.8076162044400869,0.8398296066116152,0.8762214271521157,0.8870350548055955,0.8472728984981032,0.771143880236793,0.690018849505804,0.6075846230093179,0.5294311998815991,0.4448331694241502,0.35969672013040277,0.2766496584198025,0.1988438297770908,0.11446101709463563,0.031486708960960064,0.0,0.06083127256299237,0.1396037247134776,0.22013480063016144,0.305188865421666,0.38925912936085105,0.4668746913857095,0.5504224225273887,0.6351887833435147,0.7137848712648917,0.7953680481161162,0.8732079684413335,0.9144574327228884,0.8931861626011185,0.8691136756509964,0.8437630165466886,0.8117853728633487,0.783832273289366,0.7593467432379558,0.7670701489182793,0.8038649237651171,0.8286345265718068,0.8310577399466968,0.8314875736816677,0.8416875458669347,0.8510999520631543,0.8445068748288042,0.8232549115391062,0.8211407140941743,0.8489642693987441,0.8801592756956417,0.8840645936588608,0.827792584264681,0.7506016800518424,0.6666554207295027,0.5882454980583499,0.5061139061720589,0.42099262372998447,0.33637277558406964,0.2581989586772123,0.17574703127137525,0.09172503563499323,0.031313622930760676,0.05498825538728003,0.13248444629157807,0.2104437412652066,0.29497411048623945,0.3801212571380802,0.465269049632694,0.5504166710329935,0.6351887833435147,0.7137834911656072,0.7947545611641359,0.8714268782890114,0.9143984125277406,0.892278185555852,0.8727226866054653,0.853619986624851,0.8267628968570354,0.7952222373748082,0.7746981402354925,0.7882770716345086,0.8254628467487145,0.846607807332905,0.8467183907149386,0.8421014478679908,0.8495779657364971,0.8587095231822749,0.8588973526964078,0.8393311014484702,0.8346796429720512,0.86333297319305,0.8879064984964112,0.8987095221681457,0.8734877443713659,0.8006134198596485,0.7277589387237632,0.741472044448597,0.8218665780876181,0.8991461683043503,0.9622558956418724,0.9481971836555619,0.9265584430021888,0.9034826583581917,0.8669401952619568,0.8713690304266101,0.8917582273412378,0.8871972288527686,0.8820240851507676,0.8712807239938657,0.8741850826232017,0.8789091094233211,0.8771043578319765,0.8539469744494893,0.8186400409699451,0.81012428887958,0.8349896162910638,0.8674099301650599,0.8893091882322101,0.90675795606493,0.9338993843773523,0.972744224299953,0.9584112420173202,0.8837896873696153,0.8056232783080851,0.7265911883891513,0.6457189523353387,0.5668029354983196,0.5716533838767593,0.6499264360190459,0.7280401725297662,0.809374932389176,0.8859525434402019,0.9485705822433651,0.9405107437666095,0.9133860847058862,0.8927949845003883,0.8618380103867201,0.8633785479779311,0.8810218116694596,0.8793105300344727,0.8776393986086487,0.8622583946790278,0.8556852135570631,0.8555424968477999,0.8497312816399166,0.8179154601697124,0.7930609058252164,0.812248238935113,0.8406099091075326,0.8706176768509447,0.8972278959961907,0.9213612504589269,0.9578596061222168,0.986898041551871,0.9414724908572029,0.8665507252036576,0.7864459711546584,0.7088890502641602,0.6253780680640476,0.5435682869922839,0.46509311711609314,0.4039711050148881,0.45217466319707433,0.5367509303176042,0.6183012448064306,0.6971795433405567,0.7820180238581546,0.8663992348855772,0.9400143419915749,0.964881283083847,0.927374031640457,0.9068475277653237,0.8746934086684016,0.8463323429522068,0.8618149419462903,0.8799092036246524,0.8720891319403165,0.8606076670595876,0.8600162810806461,0.8650293480537973,0.8534466679575,0.8263120136358956,0.8272719561071961,0.8538094782695668,0.8867486458251835,0.9067460450880346,0.9224531166945485,0.9552914629113277,0.9999999999999999,0.9883118408599264,0.9194195256159364,0.8406877724666192,0.7631309169017745,0.6802774014063034,0.6019297170389947,0.5197378644470537,0.4362211305966056,0.40928310250245026,0.48230700561848894,0.564156169741966,0.6427508406428691,0.7265711610172881,0.7982736429707663,0.8662564665045497,0.939666840097697,0.973739186026661,0.9389675782476617,0.9151579583012482,0.8902131177475733,0.8574816692050914,0.8684746450839899,0.8832584729607512,0.8738251262919287,No
0.5241957122043593,0.5545244104902943,0.54327328925247,0.4795233315938031,0.4080255295039311,0.3401790402444269,0.2723860130214405,0.203661984136964,0.17546089593006475,0.22454997592156145,0.29458385967567924,0.36034913960818615,0.4313910311727157,0.4995061536007631,0.5474957535962558,0.6060852758442509,0.677140511628025,0.7490546856183792,0.8209397709946215,0.8838679403095292,0.8700467983867403,0.8205068600987683,0.7879036413659019,0.7729734918716195,0.760297934982543,0.7433170835116477,0.716742383832566,0.6790147156885559,0.6452991427588018,0.6325971589633615,0.6565676423510313,0.6920058569679776,0.7242241262930861,0.7405957130088364,0.7371132883803694,0.7271150495905897,0.7407956039941638,0.7577247806517621,0.7676419524793295,0.7807819581188528,0.7902113953570472,0.7979260421024478,0.7879052195985216,0.7509537067143693,0.7065614726373001,0.6926864358305999,0.7027610879677161,0.6875887850911374,0.6313924232083524,0.5654774418900838,0.4958062231676733,0.4249019270810078,0.3591711820351371,0.2884576550321615,0.21656530518290873,0.14699931904695185,0.08081867324100234,0.01910193185587683,0.02117872905188234,0.08067525794491714,0.15191362323272617,0.22159416620568761,0.2878116372285755,0.3592918928237572,0.4312055258144599,0.5023362644342956,0.5681374531981659,0.6385738688690584,0.7104828432297526,0.7823897067230524,0.8492286101906487,0.8484910257215456,0.792844159385487,0.74617074817817,0.7246512506487442,0.7233488410934378,0.7236329571180679,0.7064273355817502,0.6762575067836366,0.6376601870783084,0.6046968197089403,0.6009866938174689,0.6292922361224104,0.6638643072828231,0.6931435411846057,0.7029355837084638,0.6891519912548917,0.6778751342007122,0.6853797456167668,0.6896930413144836,0.6894439023719875,0.6832121314400469,0.6791903654015791,0.6790293222886329,0.6634093206854158,0.655896493929437,0.6719879933955154,0.6858530497145464,0.6823288311430987,0.6356809893544321,0.564383960421801,0.4930310789557083,0.42704844225940086,0.35701317134297283,0.28592284921966216,0.22013316861394472,0.14967708221777398,0.08142837710503104,0.03125383994341069,0.0,0.03464469890025823,0.1003673690561987,0.16857906977905246,0.24041883614916415,0.3117874985750312,0.37781477934741126,0.44779237548218254,0.5196206760330896,0.5878445502603825,0.6552852608842584,0.7262677663174412,0.7597368089473827,0.7195119937826603,0.7184919985928847,0.7596563435803728,0.7948576229727867,0.8083870851804399,0.7960780641058806,0.7638897954384668,0.727820871953185,0.6918388845054054,0.6712446798457233,0.6885057146853247,0.7208156475859772,0.7436497704300354,0.7480604671295336,0.7390231020914347,0.7325128737806116,0.749800382698853,0.7661083525400701,0.7750348441182165,0.7818274851609553,0.7832584298841295,0.7651721375024741,0.7336594209719652,0.7110214924264121,0.7285273679652525,0.7666880948155189,0.8047759425907449,0.8369856111594375,0.8565101951339643,0.851316586697482,0.8289946941378336,0.7941038310704315,0.7732963434161354,0.8242748715260565,0.8774277713696476,0.8693345993894525,0.810135356924638,0.7403668900737431,0.6700877260882118,0.604230837229219,0.5330119434365937,0.46120380414048523,0.3934054157754244,0.33013156158647705,0.3327162169174036,0.40082534527705904,0.47195946675115963,0.5377689508128455,0.6078958756913796,0.6742139508260184,0.7292813006147515,0.7291147927090534,0.7146953761681049,0.6922850340243151,0.688904428101825,0.706526551417057,0.711156808337145,0.7123479911941971,0.7175199211354518,0.7202715825215674,0.7190828554170944,0.7090352683702966,0.7118265084150323,0.7294594650549894,0.7321269888992267,0.712666521700147,0.6809745171785143,0.6474033419513331,0.6349000967849384,0.6654438887826591,0.7051620698887541,0.7344331479645095,0.7508242217219162,0.7541213645700316,0.7573929233215949,0.7881333481106262,0.8439578922347369,0.9047556855085902,0.9554512249758568,0.9378711017184084,0.8755548602691655,0.8081613683529899,0.7407231734327203,0.6696250307243558,0.6037546648160369,0.5334983323024501,0.46174413628462385,0.40951111160687803,0.4463662933956557,0.5130586369267388,0.5828028290514754,0.6487864578827144,0.7159596824477085,0.7587001340955662,0.7387209444429289,0.7327568227231286,0.7313684598712166,0.7678616033142284,0.8092238152844237,0.826034344458309,0.8220632531444659,0.8156693799419145,0.8050094315532629,0.794163687168166,0.7844555631721802,0.7680892815983343,0.7676650733055878,0.7744572507909132,0.7632279959994558,0.7355876743391184,0.7015914303670315,0.6711977799126702,0.6788441419862129,0.7134763838050221,0.7511935131757018,0.7771207584373271,0.7898830195044814,0.8083887432213724,0.8236003170439986,0.8617821134413154,0.921024023445811,0.980541502381986,0.9999999999999999,0.9513101038936219,0.8818122104098424,0.8146761716940135,0.7461378816331404,0.6752005946575043,0.6412070953215047,0.6902591862875657,0.7556715076304056,0.8138592453608108,0.8247566574584483,No
0.6981219916177108,0.7113941252228246,0.7123430533929749,0.7059971301022363,0.6867380153007165,0.7012862905368935,0.7391802467530255,0.7431403859120127,0.6808392519608726,0.596202222966246,0.5050548297050053,0.41437491630467793,0.31663246984299986,0.22518278558858862,0.13128503415671577,0.08500698904789417,0.14223954248998405,0.23491755611701048,0.3354826653044627,0.4362632106067912,0.535581340653257,0.6264972874468311,0.7243968055576342,0.813392486224249,0.8431643628671794,0.778695304857018,0.7215089806470221,0.6828293237393332,0.6549437213240592,0.6365570001294649,0.6045333871943208,0.5513738915767032,0.49219243689132686,0.4576410796431931,0.47748705197029073,0.5390076774130794,0.6027849911975107,0.663821616492396,0.6943621869475274,0.6974152738078729,0.6830555969281027,0.6610752565681499,0.6541454203236585,0.6560756409736508,0.6651051910326842,0.6761196304867505,0.6794801549588219,0.6605074289322526,0.6596567751200431,0.6909619844832207,0.7348274285076022,0.7203377792589694,0.6484457278253115,0.5656369061074142,0.49166127986685026,0.4003308391903335,0.30618541005648403,0.2119427974264183,0.11589406454191997,0.058307154137940964,0.11152252381364436,0.21008623443151953,0.30119218911766965,0.39914085348653483,0.49185331382548814,0.5878298826815718,0.6867474992354017,0.7775727794321934,0.8591197281054008,0.8290349584726544,0.7574161684684959,0.7135458827038252,0.6880462516287855,0.6592528844524497,0.6201910987189463,0.5652335914231037,0.5163509849930847,0.4827429183852632,0.5066235811199336,0.5720793363391146,0.6416033373553287,0.7064108499253672,0.7329755294460403,0.7418263685473556,0.7338701121343203,0.7118015147042558,0.6990251863526245,0.6983464224709699,0.7095669344260378,0.7169061869417799,0.7088181663129232,0.6845657490090657,0.6874521309259196,0.7086104157227806,0.7391242833124576,0.7186365160829971,0.6425243636294,0.5515273425142924,0.45963140165761196,0.3689658934873259,0.27267971525852497,0.18150728271787453,0.08191766503296849,0.0,0.021599646385023874,0.10868262484845315,0.20878414618015895,0.30489692491183584,0.3975021785834505,0.49404587442211856,0.5680290383765227,0.6597709481293224,0.7571562669839296,0.844812693441084,0.8614148629020517,0.7868214988190776,0.7189193707986521,0.6832081116218534,0.6599060850289293,0.6303628632594414,0.5836622798977367,0.5308615305072155,0.4719427996436938,0.44466018751398173,0.4800011603818395,0.5498605092642952,0.6161668928211241,0.6744601343952328,0.7117963808902716,0.7234072859488927,0.7092797201793573,0.6894441953001074,0.6827476987764529,0.6904372244097552,0.6983946929655847,0.7089148753413068,0.7259543466562246,0.7476651808899442,0.7372045053073213,0.7314417207785422,0.7238528194264136,0.7307214269034874,0.7502364978778548,0.7603193367513088,0.7491735094805769,0.7220478501606455,0.6671128260317272,0.5985323047089974,0.531307998454724,0.49773510088564876,0.5459217762853321,0.6004617487039756,0.6484021206228825,0.6860261334987847,0.710006058207614,0.7421070583164273,0.7974074009941388,0.8736586616797111,0.9597638113003486,0.9999999999999998,0.9442988988817282,0.8539960815247858,0.7611891813073532,0.661709745814955,0.5705172945791952,0.4761779306624414,0.4580198135823823,0.5454285746401155,0.6446659850617549,0.7278182251646326,0.7809187754012801,0.7818393492181055,0.7478268332483944,0.7273793137585136,0.732224042275474,0.7487262232309544,0.7588925857801645,0.7530446140234182,0.7420949772421619,0.7475968025184925,0.7628934946148018,0.7851266733757829,0.7842129084734524,0.765748543176523,0.7300195326507748,0.6659214747690008,0.5998657972193768,0.5384943489318357,0.5425038716040806,0.5903051485529105,0.6452762129876206,0.6900200512214616,0.7180825169079117,0.7461728021450102,0.7820318685940759,0.8561325593050919,0.935908274338747,0.9888852452491228,0.9517220596737956,0.8650840302559677,0.7661358700037517,0.6654493898294935,0.5702712213332457,0.4775546294799127,0.42452526191953277,0.4962662707831833,0.5869173454993979,0.6745067679601069,0.7484712728736496,0.7861952829362451,0.7776015675551375,0.7312371592978824,0.7012166913563493,0.715191164755667,0.726443455999892,0.7185604801691896,0.7088229542676452,0.7009121402321863,0.6988564896519598,0.7229726215421859,0.7387877466806512,0.7462050017843269,0.7334071255897594,0.6888426680379445,0.6291517044545036,0.5664953526145442,0.5075101024487256,0.517339553563686,0.573016962460674,0.629626292325608,0.67194710000326,0.6949833331304431,0.7246314506474734,0.7710776101895089,0.8407805615792652,0.9200965076725403,0.9752433616027181,0.9341980741144063,0.8419634062018531,0.749402795546035,0.6555316455837181,0.56123708416754,0.47905130835971654,0.5083438321327083,0.5822572608069645,0.6683266528833063,0.7464219000689647,0.7925239850695458,0.7939109102275419,0.7578761783397818,0.7407917846097891,0.7551102586278768,0.756512055490888,0.7539043313811742,0.740851435167041,No
0.40817265529107205,0.4515179297535905,0.49462647621518063,0.41917576643426124,0.3249948036767365,0.2265218155364055,0.13087820341256773,0.050286425860049055,0.061417333736748514,0.14741252109238867,0.24506031126914607,0.337821731858748,0.42407954965859207,0.5166792509158862,0.6196209546885729,0.714178971809027,0.7931117568187043,0.8553319491133502,0.830067103992147,0.8040584571619585,0.7825024381926537,0.7491798354996684,0.7131344509289939,0.6599613323162203,0.5984583853711585,0.5342217841813537,0.4784609026116311,0.4648423111198887,0.5112593902432612,0.5821448091709152,0.6504323685047031,0.7158088653734844,0.7704823527352604,0.8034010673956304,0.7957991815295169,0.7824349121788066,0.7718032618087523,0.7793663856786051,0.7955565932629209,0.8040468335966198,0.8131105571375747,0.8214224689504248,0.8180685312470537,0.8045456736276617,0.8039560097156908,0.8176100134211408,0.8540493413590085,0.8529567440843815,0.7786002047923972,0.6925893968614738,0.6144051817584879,0.5189374063223688,0.4243860154040122,0.3261099219909622,0.22845378278465445,0.1430262661189432,0.13471187248373573,0.22473395876997126,0.3204197025761397,0.4175725143568907,0.5177144492588321,0.6110036791461178,0.7132089773536312,0.8112826033939862,0.880073787012889,0.8560511088790754,0.8274616232100378,0.8092553998229208,0.7877601311313591,0.7566492638684319,0.7022385900035455,0.640774119379758,0.5793673307673552,0.5351964373336826,0.5371743083494565,0.595897556349593,0.6652740502090642,0.7333500568653206,0.7858873478717721,0.8143115930807889,0.8158537320668215,0.8094792449011368,0.8015915565982255,0.8116786388865629,0.826435335762945,0.838739303337539,0.8396799851039192,0.8454761036753733,0.8276665936650098,0.8057394762657908,0.812284439595095,0.844373517613433,0.8602522694245978,0.8336982740231287,0.7476151470704355,0.6525436230204908,0.5551447799697624,0.4551847093590853,0.36177502864660194,0.25976593238358725,0.1647872338031684,0.06896154580071712,0.0,0.033936681931169055,0.13243100430885213,0.23561120578592054,0.3370713188114527,0.4299535000685326,0.5314016300514877,0.6333374374204515,0.7263365898538621,0.8255169277699972,0.8724210364633556,0.8437293937736832,0.81653143071116,0.7885164759780112,0.7615806276097485,0.7181524904823444,0.6586055081338373,0.5954522447720634,0.5364504319289072,0.481226780436093,0.48306098318928625,0.5406326733936586,0.6087588463576004,0.6742412687886126,0.7328753915799915,0.7883073774435889,0.7923130136355803,0.7803853792281568,0.7609167404883661,0.7663174835153632,0.7949294842954266,0.8050250376621886,0.8095291759032461,0.8278940505950381,0.8497675168330749,0.8462349056305976,0.8359286046692347,0.8068401233015257,0.802316094745553,0.8285262958670332,0.8373997607409915,0.83343159698736,0.8011927388849385,0.7421608515533231,0.6844879381900579,0.6107795599310983,0.5433706471365833,0.5359012653802839,0.5960279316169954,0.6601032848600425,0.720009371785975,0.7745333072918985,0.8083385166639068,0.8321827566652575,0.8591824193366415,0.8937614197543113,0.95346253087894,1.0,0.9486171116203028,0.8473813344515397,0.7490595025073161,0.6543524904782769,0.5515740874752959,0.4560222290908833,0.4494166985702852,0.5354189867778114,0.6340393083000664,0.7280325249285493,0.8230019389036056,0.9018264553098958,0.9100377577055836,0.8957334346133803,0.8628058691883616,0.8533621389170389,0.8682998860617408,0.8854450247433925,0.8789115830045651,0.8769654206606154,0.8773894754084344,0.8612069595059091,0.8484601925613156,0.8424169579061171,0.8532885019669902,0.8585790922260648,0.8492293475355881,0.8141554328211034,0.7656543451749558,0.697706663141453,0.6222181641775983,0.5790839557690939,0.6122570961957186,0.6795278308622459,0.7388791835442414,0.7935371294850411,0.8214780906084442,0.8418888927751791,0.862770344713073,0.8937776750263153,0.9545517637628853,0.9963353771140224,0.9460098840077888,0.8482656978295164,0.745280699890114,0.6491611729732916,0.5523914065061013,0.4510193470162813,0.4142958003168342,0.4931631786069979,0.5912166146020916,0.6843949266597158,0.78080697108199,0.8704916981014228,0.9256581369812147,0.9068738445796689,0.8895963673362814,0.8526549996752726,0.847755885312055,0.8648868550916604,0.8633960178900719,0.8539517316648118,0.844790979216405,0.8408618745955261,0.8284790019135886,0.8180096329362128,0.8223251569314343,0.8335879645441593,0.8427574022743936,0.8214057488480568,0.7749948541794702,0.7166224749169237,0.6450113611315729,0.5740808670493256,0.5222608383080272,0.540233188451174,0.60443488460306,0.6683280330819321,0.7229243566409091,0.7686513257344116,0.8009795494672693,0.8292940431400635,0.852718109324027,0.8892194594496736,0.9505514281353218,0.9552126544855324,0.8747330480697841,0.7805216531158852,0.6784918842970993,0.6005507497063722,0.62877640724277,0.7215535325142906,0.8126788404002743,0.8879194420177896,0.8881146305405485,No
0.826766058320428,0.8429303918705934,0.8530162338097101,0.8323998872647166,0.7660400507558259,0.6892554546043118,0.6119764501830286,0.5319558180902244,0.4543913616108587,0.3728175441597159,0.2949295677020526,0.21392068531350172,0.13393918608607958,0.058884088812721,0.04101329689895855,0.1067398245656408,0.18788713742342222,0.2695528959602502,0.34715924568677636,0.4292978498432559,0.5122024978362577,0.5926448363831828,0.6708046596699949,0.7466912040433501,0.821811891122839,0.8982094373673121,0.9240766398545442,0.8660184358389443,0.808333435845905,0.7770130732367907,0.7453529259258685,0.6997210472912486,0.6476705478282562,0.5897392516363927,0.535727478987831,0.5265791973935282,0.5799308276953526,0.6431028566080886,0.7056044785972021,0.7632526905471032,0.7915101839345505,0.7847057162150294,0.7741070253008654,0.7820041480203747,0.7919922008303643,0.8063219084720278,0.8117152500247499,0.8087874425114673,0.7945757851102989,0.8174871635751951,0.843245562051557,0.82898173033595,0.7660572876659008,0.6862271891493618,0.6053743697545656,0.5276056664933596,0.4530583224998094,0.38252683853006286,0.3011832588071107,0.21983724929769188,0.142120836549265,0.06196381888059421,0.008119446454256218,0.03612010878491134,0.10185168685187063,0.17792718885101633,0.2605085340238755,0.34316480718722275,0.4214933747269273,0.5019581336352754,0.5848648391808579,0.6678059626292406,0.7507470860776225,0.8335617743078371,0.9103370892613386,0.9306122649432972,0.8715879844007689,0.8145079374673102,0.7774258687664976,0.7468431940149322,0.7014027171237277,0.6458639700319554,0.586571768497827,0.5370341188355338,0.5255143129720066,0.5762987446222091,0.6410690810068821,0.7089548946856575,0.764229973848871,0.7948714920674721,0.789667558823307,0.7812412240210947,0.7897054406333964,0.8037319351496165,0.811912827296298,0.810299254698342,0.8138733367756615,0.8075519917727231,0.8046206309392677,0.8293509182174631,0.8347352996476126,0.781548050776559,0.7065233787655177,0.6285888957171314,0.5507363302311137,0.46998482760397775,0.3897023949410793,0.31124666972523085,0.22870715101091854,0.14975877507010638,0.07065965529902751,0.0,0.0014138078807109933,0.07694091373977208,0.1598460524733849,0.24278717592176757,0.3257191358641034,0.40715789060385554,0.4822103757751506,0.5539148111258113,0.6352650091936308,0.7167952325049912,0.7944399041573157,0.8756035933767067,0.9148055072982918,0.8652107469729412,0.8110309031200088,0.7735806989604582,0.7376795528789516,0.6937177552340373,0.6392134294126192,0.5809397645124023,0.5299888408868934,0.5185448356560891,0.5690029585899955,0.6377189971158547,0.7021658654614816,0.7597930657092445,0.7955322981785674,0.8141846542460808,0.8197504647344614,0.7883424438265166,0.7340399640352312,0.6669503544142924,0.6020544503194724,0.5546081293136671,0.5820330259147862,0.6396213242709895,0.6934354173940168,0.7409451854234884,0.7793648443235807,0.8141388605732228,0.8644744397797613,0.9299677494237243,0.991816401027572,0.9887637046161749,0.91440015176594,0.8322858046167586,0.7546800757224329,0.6730286618429014,0.5901721616089263,0.5104927294014888,0.43147561289061465,0.3488116696766387,0.2848071568257071,0.32378506777122773,0.40488362121628874,0.4824569827291014,0.5629039913506969,0.6403679316555934,0.7184863206020587,0.7940275660336832,0.8535352636821208,0.86475499668167,0.8482301897570416,0.8278881085173767,0.8363772518718583,0.8344191756243421,0.831886989899859,0.8257383597609057,0.8115853535037919,0.8050766691060537,0.8147821258613653,0.8177459492579461,0.787821979143945,0.7327238167528215,0.6685849440852673,0.6040609334882773,0.5566828964385097,0.5823766041283062,0.638980921975124,0.6956938062789216,0.7466270213004716,0.783763960887755,0.8127116527258705,0.8643599073819285,0.9312342588713677,0.985040753155188,0.962760282893531,0.8887066506234099,0.8073143544002651,0.7297192954807182,0.6476139180929655,0.565222385470329,0.48819182425050633,0.4455556849734784,0.5017548844884662,0.5817874932098085,0.659584478397644,0.7376015921650919,0.8113862141220262,0.8639389055885648,0.8702061642718218,0.8502752973988758,0.8234076834425129,0.8298065736554757,0.8353322909866528,0.8328332048351549,0.8154433444071808,0.800152467563413,0.7977739349686378,0.8107851436545969,0.8105348258868271,0.7777597715885339,0.7227105312658241,0.6688781548203372,0.605137732845784,0.5592239946952714,0.5916873794479546,0.6517505844484862,0.705751008605726,0.7516777840978711,0.7880919709405264,0.8160756419088137,0.8665229309041801,0.9359374326917557,0.9999999999999999,0.995344369348243,0.9246001143746126,0.8456083185796753,0.7632169036538007,0.6852268627522337,0.6043091045193197,0.5213899584538755,0.44132461593364136,0.4257384666154157,0.49787757658612997,0.5757271907939961,0.6561357710988397,0.7331805959523569,0.8080213066099703,0.864634634213174,0.8758230135412844,0.8639194155237319,0.8551418584847924,No
0.8527486583816811,0.8425540086443005,0.826040737396761,0.8299224047540527,0.8464482458615171,0.86003973762178,0.8689909242166266,0.8747530129827951,0.8619097635343606,0.8632153980276501,0.9065528051280937,0.9246388671422038,0.8827835068252182,0.80723365343228,0.727275267129064,0.6516632760201316,0.5708496113115665,0.4892654886211708,0.41043875364821736,0.33401316205735776,0.2526926280337852,0.17109293809154624,0.09177056087898916,0.019933655133913653,0.002675519980543939,0.0695353849095931,0.15099304094762056,0.23260216283194668,0.31238977627274445,0.3881461385832339,0.46915257995551296,0.5507721584150506,0.6319565177101863,0.7079847184537854,0.7872924096441608,0.8647756098055018,0.9125000730856817,0.9382450578739195,0.9428765247584431,0.9088774059618324,0.8566429051637342,0.7987940777245085,0.7433183049148467,0.6973522991091633,0.6980054325682609,0.7490994403567056,0.813612762996445,0.8711140330905617,0.9254678155458261,0.968735198732762,0.9770763676154205,0.9575742261684551,0.9486325953490352,0.9596069988657988,0.9602051411392999,0.9484751534517178,0.9319982832767325,0.9060234500231913,0.9219625415441249,0.9466156658965256,0.9213251750704813,0.8518766580490896,0.7710567846525652,0.6943638629771646,0.6158571996673073,0.5343380975570776,0.4561971786865354,0.38961227649189667,0.33343103951886477,0.2712702824111469,0.21142271894916764,0.14150968085209104,0.06313401071640512,0.0,0.025623320911438263,0.10431170637953868,0.18592628043256787,0.26707013509823985,0.34303098919825403,0.42248229794102166,0.5040813258697076,0.5845345404499717,0.6600731925000888,0.740577994796458,0.8189339287956582,0.8807636565296174,0.88360766631613,0.8557672204907999,0.8185913231592002,0.7768019190185259,0.720487484880516,0.6622638014913805,0.6083489307343345,0.5804015120940015,0.6141415602443717,0.6749068733586175,0.7434353844566731,0.8062536950449725,0.8633385510057522,0.9094876014394594,0.9226655246901657,0.9048490732008142,0.8974430035694533,0.8937391024649078,0.8578496402848294,0.8390909612723966,0.8384892185492535,0.8309534954863119,0.8158546368194236,0.8390077887949311,0.8712778078246727,0.8598519846849871,0.793567437064037,0.7134535591747521,0.6378982214282277,0.557624346851591,0.4767279810178847,0.4010603036323146,0.32108205890971053,0.23947018323565372,0.1578492032651424,0.0763069696736911,0.005220522583608722,0.013979392696920057,0.0848063983803522,0.16423308651942758,0.24526872743994987,0.3210929871409506,0.40076701677533566,0.4823499072763924,0.5615437675103728,0.6376836910511386,0.7187119829970025,0.7948347690009042,0.8495975126611269,0.8495892167451186,0.8260323956686103,0.7894795586388447,0.7402120564603928,0.6849548119350303,0.6250152326004098,0.5723261286595421,0.5616166272073174,0.5897264980869475,0.6122994244659513,0.6677061458934633,0.7278002536700189,0.7807998157332682,0.8237395978057623,0.8568147498606867,0.8774044171297614,0.8766172256529957,0.8341146166486743,0.760902158932894,0.6810492058793204,0.6054609903168927,0.5246520821642687,0.4431504912579164,0.3795636643753725,0.4170542754722397,0.49192238511512476,0.5716800992222767,0.6531180235255266,0.7301944050064332,0.8082717101957492,0.8871335204928034,0.9205386278167312,0.8997018368426292,0.8761328550307445,0.8505326839366621,0.8601046894619578,0.8626541760274641,0.8631100900466385,0.8916474671363427,0.9247898702924308,0.9222291849495857,0.9283537127406006,0.9481900494798349,0.947929952498974,0.9152660023309126,0.865978771512166,0.8046700437651587,0.7381156580085636,0.6741375922987735,0.6219295457228625,0.6362637868329389,0.6920884130162798,0.7492624132188751,0.8016248316316247,0.8446602520393104,0.8796015477253093,0.9062307725385258,0.918311727955805,0.8874082626043897,0.8114383410187166,0.7308738582698483,0.6553464050259042,0.5750625395285603,0.5105077066677949,0.544231638139765,0.6245581187913897,0.705844084175303,0.7821226175398174,0.8610749400995886,0.9389981417110463,0.9917232900676635,0.9806794308853649,0.9620995277953809,0.9387025708562055,0.9554185616531653,0.9739529119379339,0.9834429302011233,0.9891304459545788,0.9795753888851247,0.9814555702436675,0.9999999999999999,0.998593608661677,0.9649977610419037,0.9150786848873619,0.8576324892684927,0.7977451306897828,0.7390017715524565,0.7343701150872538,0.7854787679068193,0.8399947001026012,0.8959191798183382,0.944834475429165,0.9738542224241521,0.9696014551382021,0.943873104162337,0.9113105716180933,0.8389159963445051,0.7629640177487139,0.683630420163997,0.6020316399821696,0.5222919156746065,0.49601322244644075,0.564239024609494,0.6456776149993299,0.7233572769164199,0.8008089941208208,0.8805488073535676,0.952272228331489,0.9764082054905666,0.9555884493322747,0.9276409121612449,0.8928687948996822,0.8989936802669479,0.8990900140859127,0.8882712478885003,0.8753044826921229,0.8593245223651648,0.8550037889034908,0.8728897398073187,0.8800405993037291,No
0.480131356066857,0.45323178087012717,0.4107401532122259,0.35008080240790584,0.29146333107516575,0.25910892742398306,0.28035312054141226,0.3340674274197617,0.39997136586332105,0.4601146385178232,0.5068611302725732,0.5270498604357603,0.5184047337012783,0.5025530132636564,0.5075779889797984,0.5071849561778801,0.5117400358376389,0.5093472005974042,0.4898881822683727,0.48058914825287746,0.504707537821258,0.5105976638396796,0.46726838460772746,0.3918036818206758,0.31268357379898837,0.2456192012664764,0.17020786551388545,0.08717262674955095,0.03460851466569159,0.07440433644594524,0.1563154309137904,0.24016915344418632,0.3181723442570936,0.3921314272570251,0.4537344564047565,0.5253722800624545,0.5846845457724548,0.6408922451878449,0.6967373286141139,0.7675594231798211,0.8325365101401234,0.7950585789833,0.7186364106954548,0.6417647050288213,0.567911800562177,0.5146596209857641,0.48110342343480283,0.4602346984144188,0.42049818868753297,0.37018123454689533,0.31563767679046695,0.25571173402515157,0.2223293445784944,0.25258846763209397,0.3118349197320107,0.3727819451786032,0.4297261961683039,0.4764070470300914,0.491587379222149,0.4901891583523963,0.48282516926832386,0.4893008286297007,0.4960213277033738,0.5019188281761948,0.5050869291153854,0.5064705079491953,0.5151167525750793,0.5027023426595971,0.5017003748185089,0.5280925211835952,0.5348356092646773,0.48335018773981875,0.4076415762920158,0.32877091889853727,0.24959091070134498,0.1714107264876028,0.10166405263203893,0.1119914011071832,0.18840177829758709,0.2720650262094084,0.349955217749657,0.4320560750797493,0.51636618650416,0.5999693121624274,0.67770627832321,0.7589802300391695,0.794747304640687,0.7337184547103239,0.6608250632497707,0.5924910757603947,0.5443930060125239,0.5219621191949717,0.49831868846092253,0.4539214343867317,0.39764909180454033,0.3411966717954771,0.2892195121755148,0.26932959697821235,0.3080476208421523,0.37217075890533047,0.43208330730589406,0.4834952997001696,0.5164067855161398,0.5193541569166205,0.5074956414599605,0.5061299318875787,0.5143112621760941,0.5212360487789327,0.5181125761049956,0.5269037665492371,0.5291461157294239,0.5304422458423574,0.510948257602376,0.5158355584916445,0.5246996860626061,0.49867561062997345,0.42695696883682,0.34979284008219924,0.26876734442242967,0.19119342033040043,0.10884881114408129,0.032729695345712795,0.0,0.06017918180278303,0.139693535882373,0.2193945426265267,0.30359118407854835,0.38791784870838675,0.4722445133382229,0.5565711779680613,0.6408978425978975,0.725213431659893,0.8075730297675474,0.8853169109787644,0.9673457708022828,1.0,0.936509544921768,0.8581980413387462,0.7742093698252543,0.6899314110943418,0.6090041982131869,0.5311024388431043,0.45924672802398336,0.39609966672899466,0.4262872096985024,0.5021963606276385,0.5538722607616822,0.5572915107569112,0.5461089298879942,0.5572865780418506,0.5656569789692807,0.5653126214628588,0.561354022025562,0.5563712939881835,0.5525085547384994,0.543233273977519,0.5391946827969527,0.5451530458316387,0.5559666976326516,0.5475889680049362,0.5192187264002797,0.468233615671505,0.4072654345377198,0.34508780945204265,0.30694826720083657,0.3443441620476886,0.39996915887863693,0.45489089419619266,0.5066045836481183,0.5434897804999406,0.5585872487789105,0.5926143711113336,0.6606159872213306,0.7330594584867052,0.8077565124866108,0.8840147535345104,0.9512913953708813,0.9491833315723985,0.8794597524048136,0.7958345804848623,0.711508724426497,0.6271820597966609,0.542855452748827,0.45891485969877466,0.39524905045733916,0.42988989289598356,0.5040365728518033,0.5608573505931609,0.5714974340584098,0.5497344791824359,0.533537531871181,0.5489775591267443,0.5483879934942546,0.5403330107027617,0.5383445581989532,0.5298685385098914,0.5231769103171648,0.5209407436164002,0.5219630030344582,0.5220937809196402,0.5106092649111857,0.47713391418019313,0.42627232134517445,0.36670165247180986,0.3023415178406903,0.2622190320946054,0.2973871631138476,0.35663736213509667,0.41104440808365217,0.45930357095574315,0.49391987850414276,0.5150811894644278,0.5540601011928608,0.6167318616402933,0.6901008553508179,0.7663824261825567,0.8434849522300358,0.9256710986323775,0.995233262376042,0.9964191800212636,0.926825793581417,0.8441904040135666,0.7627341460009527,0.6843867107971664,0.6004439350245636,0.5179477506675654,0.44873055265980666,0.3839874144605675,0.40286309058847314,0.47701817436227056,0.5369817457839816,0.5429799588836459,0.5237878123274846,0.5178011687367974,0.5397526139495339,0.5424308564490101,0.5424259997697087,0.5402198701185514,0.5382984886848416,0.5522735228257811,0.5641474322052584,0.5558707630216471,0.5206937539402501,0.46957186766978887,0.40822995450188704,0.3465830539037249,0.30186222370894455,0.3326715493703438,0.3738017222768728,0.36309836620111025,0.402900017719944,0.42986536331961966,0.45422411380807737,0.48895208073264085,0.5154530680764708,No
0.6718665214202639,0.6872414817218793,0.6853480777060121,0.6783976580888702,0.6796257077218488,0.6879164204590735,0.6945366988757109,0.6838271363318322,0.6634629921886852,0.6492571637409914,0.6690881292754014,0.6931877147855956,0.6919540281949601,0.633162424648751,0.5653763497292321,0.4917081516722348,0.41877376679748934,0.3508721596178024,0.27725646570565154,0.20278015976537245,0.12830230676980525,0.0541925338651158,0.0,0.028200598761839446,0.09826337252818695,0.16637489521981497,0.24024887363992398,0.314694179418171,0.38625617490484343,0.4550057905199896,0.5291718991234928,0.6035720462826226,0.6741161106168421,0.7437672376024755,0.8176111957638079,0.8635797629495978,0.8211720960066435,0.7642118910906428,0.7256263063049833,0.7102358553727106,0.7045144884290966,0.6912402665271797,0.6672128419504029,0.6478813591027439,0.6282440062243524,0.6309354279718395,0.6494585140908158,0.6744646912827836,0.6854691674765203,0.6775085187228529,0.6698346105791586,0.6730419456667465,0.686437907906913,0.6957145925927182,0.6952091027521057,0.6762416754558909,0.6600413644871219,0.6684004450166063,0.6943742846053174,0.694401989014847,0.6376517117294922,0.5700496587592396,0.49670910850239514,0.4266003572845021,0.35652767383072215,0.2821585367078754,0.20840479467567286,0.14041439605285677,0.06803597589935739,0.015641448485139375,0.04932656383479239,0.12169461329054843,0.1897319903686827,0.2623209488752063,0.3357873474885458,0.40362161783283024,0.47676323248784236,0.5511497941485615,0.6215420513339398,0.6913408159789927,0.7651605066087113,0.8066251178267667,0.7638552206736944,0.7177797357473299,0.6909463951112049,0.6758272298497312,0.6601075379002876,0.6408720629869566,0.6135565448821765,0.5852562384914897,0.5654987472171338,0.5797152171890201,0.6138415932002481,0.6506916565333534,0.6764136812380093,0.6861925090776744,0.6812279800051542,0.6787791682050628,0.6833411087432213,0.6944693656585499,0.6990084134832777,0.6814811047779181,0.6682811367141483,0.6836509699990934,0.7124754688687263,0.7130814963994723,0.6623743977421401,0.6062764125806257,0.5477532069741846,0.4745364481260492,0.40006746704837304,0.32726145627214076,0.25931005340026614,0.1856156253357507,0.11223098056315961,0.05381207666894572,0.0618618575831531,0.12471960663875836,0.1983261931466107,0.2706520401293251,0.3388411358506884,0.4127850351468607,0.4869571473395009,0.5557716599523155,0.6272627473316184,0.7017074792950675,0.7756037626082604,0.8411811594962557,0.8505977434146563,0.7907205649957483,0.7445200543776189,0.7169030057724679,0.7010169563517799,0.6845799658328324,0.6633896892332252,0.636173995795281,0.6063904860822038,0.5854199098633246,0.5940976075984368,0.6110067426254411,0.6236906033018272,0.6546693331959872,0.6833170540382056,0.7038911711493219,0.7209524376020016,0.7362564922789023,0.7625802751291615,0.8091103411678162,0.8703223118405368,0.9346511862769946,0.9923722856812116,0.9841204880140828,0.9207662909348404,0.8513122760022069,0.7810924296131101,0.7067633842775218,0.635767428895589,0.56653001028777,0.49257036873924664,0.4455484331154005,0.49539233740128275,0.5677469812800249,0.6357018153376157,0.705033822737948,0.7560871456260496,0.7502834716187556,0.7333059596900744,0.7070767290447824,0.7093051713043557,0.72396598047645,0.7229345998219632,0.7126497710348161,0.7059941702226047,0.7051714683242998,0.7152302414460661,0.7129896311088735,0.6950316631535371,0.6634613255371526,0.6265165783317443,0.5985902589893586,0.609240214356517,0.6382723341875749,0.6649000020880267,0.6830708668354981,0.6981862273383215,0.7159145410980623,0.7458505482171096,0.7959591434927107,0.857716777587131,0.9243942750871568,0.9732033290482467,0.9441920480411132,0.8787552507151524,0.806678251474074,0.7347303798150728,0.6662835596218188,0.5922292097061344,0.5178143394945351,0.456821354110855,0.47591134715523187,0.531988415755547,0.5853778085894261,0.6423791171154405,0.7086626607912523,0.7412273150401414,0.7272916947756234,0.7081393070298156,0.6892816228465235,0.7002790845815208,0.7209569211006228,0.7250080375882451,0.7150100487479465,0.7026250602998843,0.6937119479811886,0.7033119005079478,0.7121093953286004,0.7086249885635141,0.6890935854295723,0.6661987503888245,0.6534983585137168,0.6609078865255182,0.6861621853035424,0.7109037064679433,0.7252385940035906,0.7366595675412904,0.7544307325408821,0.7944916705702616,0.852311724442967,0.9171844944500365,0.9826794686372957,1.0,0.9433021517090978,0.8757309660812542,0.8026303420461063,0.7303631135079529,0.6690289844654738,0.6056656859668255,0.5320612023899951,0.4865195325128677,0.5368830191563663,0.6104642559556384,0.6782857693815156,0.7332628518513917,0.7301189447331069,0.7108076875842253,0.690939157655641,0.6942283346198985,0.7115574989628994,0.7175566078806817,0.7169060073420048,0.7077013481006846,0.7066225734646709,0.709376568199136,0.7158684174803123,0.7090424626508673,No
0.8838062199212541,0.892595700084117,0.8761846153996274,0.8620421025433568,0.8904125058966982,0.9208176761820038,0.9234693883977055,0.861801853556568,0.7764568165410545,0.6840703475338993,0.597262494413536,0.5058030028838875,0.41422781356891314,0.32749574035548645,0.2345935035675356,0.14825115832231772,0.06720152362371279,0.06258192487772585,0.14124330882742153,0.23319471377470802,0.3195283851722711,0.4129146450257132,0.5072803388194661,0.6016474776462742,0.6957804017616752,0.7839288357401627,0.8716953831954345,0.9137433704173933,0.8867102369304939,0.8597429762843397,0.8303821386025031,0.7907517319877259,0.733422487606037,0.671416992223962,0.6126962250738625,0.5688414073579301,0.5835359401607504,0.6431053854320498,0.7155935147220175,0.7906142373256243,0.8463743441184145,0.8730723555002934,0.8756333435851739,0.8603414528667038,0.8651227778423304,0.8737518844426769,0.8794657196818142,0.8827467260748102,0.890637657128659,0.8942205610027735,0.8925572939402083,0.8927771064946534,0.8960655983784432,0.8827879189547473,0.8644175087474143,0.8810177751164273,0.9083956302810309,0.9171319645324992,0.8946981426628539,0.8183378997227558,0.7333130287028536,0.6423169773975422,0.5535155710255831,0.46439406526469507,0.3702639049314641,0.281007517311746,0.19234247974692031,0.1012987531872721,0.027261565680373745,0.04393522125064975,0.12726881977087257,0.2212020996912546,0.31242466894280196,0.3994169477218129,0.4932729551903706,0.5873776598723747,0.6750610143582428,0.7534838408018459,0.820668980046977,0.8928069662911163,0.9009453192756384,0.8657712893465327,0.8370601796919633,0.8063477890785381,0.7598040090648049,0.7014898723125519,0.6377103460068668,0.5755671082472961,0.5374976623076814,0.5618055782933754,0.6295190043347895,0.7012311881392849,0.7684411488210278,0.8240555812228972,0.8463725587315117,0.8392796832905299,0.8280651769445352,0.8337920958252024,0.8405164894675002,0.8492688279961157,0.8505829242553388,0.8517460335229589,0.8563542365534912,0.8556292505805371,0.8517835743207277,0.8305257368059743,0.84804050917557,0.8818769396102099,0.8934527050229119,0.8506544552062373,0.7686801301920317,0.6789892423414082,0.5869080874786367,0.5005091888896226,0.40879301760143927,0.33135070794957533,0.24976059120364702,0.15755501566104668,0.07065661909200582,0.0,0.03067271220039547,0.11811578961920277,0.21211149731410306,0.30000274671910987,0.3901207851603089,0.4843726541157699,0.5747885318746632,0.6624215068470299,0.7550356237559132,0.8406533086982414,0.8989423426897208,0.8695088363373656,0.8372060495726069,0.8082238764421094,0.7761268466414589,0.7246258833263085,0.666313920830181,0.6297885359307122,0.6800333633823555,0.7417749595976996,0.7940840829437553,0.8328678007729898,0.8585285827725845,0.8880204637732724,0.9322695345510074,0.983986782148201,0.9607372485294364,0.8780452428549032,0.7917323271370577,0.6985743253569344,0.611049849881747,0.5205042298254109,0.42761367781225756,0.3904215229455018,0.46683361148903024,0.5475863461078517,0.6341913999011758,0.728128935566326,0.8153082381480653,0.893130952049291,0.9317903115108158,0.9306975702243722,0.9082126646814678,0.8806898696156055,0.8875456478317633,0.8941741238826774,0.8910405889357461,0.888538547685959,0.8860418688762556,0.8857326920079033,0.8798402573829834,0.8714143293634736,0.8654150895061702,0.8724869665410732,0.8844611802155892,0.872255781945965,0.8273716788097117,0.7657132684214142,0.6927536595723031,0.6189354762374003,0.5757347127230453,0.6098958130967372,0.6767516577517388,0.7388081529253442,0.7932123558560792,0.8390647499295575,0.8680964283264284,0.8959754965200509,0.935598468867287,0.9955900308980045,0.9999999999999999,0.927253920317831,0.8416251718245505,0.7496097559722027,0.6633880876839074,0.5706777323833455,0.4766310997609261,0.41356791562271045,0.4730331665217523,0.5658633358664221,0.6521130496275976,0.7439629407422556,0.8295418440886791,0.9076549558507113,0.951437142652844,0.9530458526911944,0.9373752527794966,0.9100014484773004,0.9118936151894416,0.9312698017081259,0.9286921986839823,0.9321989095205926,0.9279669680301413,0.9242266812239938,0.9221479394517994,0.9134314597793823,0.9044435664629248,0.8958097643108413,0.9028059774472458,0.9124188020157163,0.9011576727285001,0.8636863405127232,0.7983265562132594,0.7273517043687302,0.6578744132857829,0.6133262598589201,0.6485157394129518,0.7066238865628488,0.7648549642286476,0.8219422965209985,0.8614947557274385,0.8894193349000802,0.9172373993533415,0.9567416955350961,0.9992971333820787,0.9577817936431346,0.8724377902561985,0.7863293568150028,0.6930927947921625,0.6019402534592636,0.515079783689561,0.4444436380963438,0.4900292331316415,0.5831803801615999,0.6740725200598915,0.7611531730400872,0.848991958515101,0.926738642994544,0.9638141525432798,0.9551172735584125,0.9318298499791128,0.9035863284732989,0.9161389459621613,0.9253913413275278,0.9166026514551643,No
0.7709537898413257,0.7740984973184017,0.7762154255648119,0.7770323402724175,0.7763908270242574,0.7658431704426591,0.7560734092010293,0.7738247742966455,0.7759473987225038,0.7303436591579198,0.6705605716654675,0.6101232455396741,0.553009397940061,0.4919311305569833,0.43028271819913094,0.36863850673481263,0.3081294350673735,0.25103486690173454,0.18999410962185398,0.12834831804405888,0.06752863281530214,0.012883286354208656,0.0,0.05294875466556659,0.11225338984095201,0.17004629830241758,0.22705904442723085,0.2810310352072783,0.34225102923037237,0.4038918407380499,0.46336331431919425,0.5119005241401027,0.5699455145308023,0.6315657197333919,0.6932151807762348,0.7546449585238093,0.8123769255344606,0.8686270019222311,0.8734931873350531,0.8281691307350316,0.7924612428726612,0.7744783226517935,0.7649767773391414,0.7473654858896335,0.7175607359055574,0.6812597221222949,0.6539463227682674,0.6639057558267294,0.7009209396955833,0.737497053663063,0.7614611644128171,0.7717494630601924,0.7665330490396105,0.7611644856637465,0.7656492495149358,0.7715619709864301,0.7782815203093256,0.7858737397738962,0.7867710913311641,0.7780629375757535,0.7627002152298099,0.7724219345829348,0.7846959220572411,0.7451332031488429,0.6862757511237785,0.626073512536176,0.568863575913743,0.507671911380938,0.446023034069755,0.3844862119203854,0.3261575387614977,0.2673230579439528,0.20573602767692817,0.14441139567166716,0.08718992770561074,0.03986258052797753,0.04981114694640765,0.10661499312195905,0.1661936740190451,0.223844793592553,0.2852541566255336,0.34690359214860583,0.4085531626418856,0.4702027331351652,0.5318523036284448,0.5935018741217244,0.6551514446150049,0.7168001957760592,0.77796661190165,0.8351405555822615,0.8936630020783203,0.9092870845330165,0.863322666903392,0.8202958288952273,0.7924505953452732,0.7841188412410525,0.7735445850933351,0.7495546762228169,0.7173217269046821,0.6830830805564927,0.6694182961943915,0.6940065650241141,0.7302264104103775,0.7584082108332049,0.7692875809584656,0.7652365298971526,0.7626347979863428,0.7669176210470805,0.7753250175106163,0.7814002521419887,0.7862171892623331,0.7882274753478196,0.7762048077155621,0.7559453410541783,0.7581866951281626,0.7790382786529686,0.7509761916375364,0.6941175214377329,0.6328932936581855,0.5753181434096648,0.5156196304956546,0.45399218770236677,0.39235653571234713,0.33236074307583613,0.2749965255271702,0.2137044800988,0.15206241311249613,0.0916669895403524,0.035108892979039075,0.000997208923966486,0.04214533230375139,0.10203534039040568,0.1592709962348119,0.2204867150037162,0.2821356571903913,0.34378522768367076,0.40542739902129904,0.46578015998573125,0.5229398316893159,0.5840734152419502,0.6457221044472241,0.7073182673091845,0.7663027312271142,0.8242342479013449,0.8652942116211997,0.8344187874560649,0.7917523382473606,0.7687881195335788,0.7553448602681023,0.7408106254264981,0.7235485887553943,0.7408548593589792,0.7631876796587398,0.7761523572620792,0.7880835552415124,0.8134565631463786,0.8589044179411336,0.9162008577294689,0.9667923872465065,0.9696302765566507,0.9190940948395288,0.8595472613008013,0.800781805127522,0.7424082068693865,0.6808655769885554,0.6193152055163318,0.568522128162033,0.5838698840141998,0.6367532932450157,0.6979835653973729,0.7564604586000943,0.797332396365867,0.7947549871640247,0.7771113929553128,0.7902498044855675,0.8042703963534625,0.8073361946004791,0.8011328786849667,0.7975148326608845,0.790882012770759,0.7849001494153633,0.7833911223859076,0.7901096059168027,0.7863105408826856,0.7700525803555034,0.7410995864511547,0.7038984356780416,0.6971546126853718,0.7301629179644915,0.7632278063192126,0.7875205981409226,0.7998806499405196,0.8112827903249247,0.8419545657196703,0.8899284475255993,0.9436200622661866,0.9946967174584669,1.0,0.9494466035061753,0.8899528602869531,0.8322580178394094,0.7727313423013609,0.7111099585288099,0.6505852631654137,0.6233219093804883,0.6680942304543676,0.7257535661366532,0.7776543850800872,0.8097311945848857,0.803933339991338,0.7862824000582294,0.798227085316511,0.808871859181236,0.8051797950516315,0.8008910548962298,0.7951202125767312,0.787779684597175,0.7819580479224661,0.7807329740633773,0.7885011117345901,0.7893270517679529,0.7772726429167642,0.7542514565191245,0.7197238653583096,0.683381396894617,0.6873556412049167,0.7205160466180931,0.7539541297251111,0.777507432603233,0.7892373270792115,0.7966940658427764,0.8236582906620313,0.8708978078671397,0.9242521979253306,0.973702409236652,0.9740650219392208,0.9234410617923925,0.8631824025806183,0.8015413319966769,0.7398917615033958,0.6782660493750909,0.6229902633381277,0.6277008868261553,0.6736986789001513,0.732776024009717,0.7850529765216159,0.8042636797296983,0.7869506289532566,0.777367599692349,0.7931188904896787,0.7956689271768194,0.7951819272525378,0.7957477732802245,0.7922957819574754,0.7896314827526794,No
0.5726311750506764,0.6121051970293477,0.6659648451221313,0.7051382488019106,0.7526392653839152,0.7933569264355237,0.8196011052595545,0.8104717163039702,0.7906229399322372,0.7923266735491487,0.8072719923667991,0.8110087008843089,0.8004801091727091,0.8002168319792776,0.8215654726047968,0.840576713200765,0.8121099224692795,0.746543154202128,0.6710892940026137,0.5998837336446717,0.5260815729915839,0.44959076643118456,0.373084158922501,0.29870196877589295,0.2279283384696016,0.15188249456611846,0.07592257731410745,0.012164437851972854,0.015177896381041833,0.08574247871201923,0.15843353492671242,0.23060753744247198,0.3069984034676281,0.38345750506859966,0.4565293074181239,0.5283651498871819,0.604706801660558,0.6812253640211531,0.7565388108801444,0.8268892102363677,0.8984382312505602,0.9068398024608656,0.8561916560190467,0.8215322574748406,0.7997211832624166,0.7724647015536298,0.7386162531327244,0.6974432313626943,0.6647930465652242,0.6707307325016646,0.7083781270081301,0.754012013373094,0.7918711899585472,0.8193646349987046,0.8220142187006118,0.807341942145274,0.79686699478742,0.8031578774329521,0.8012639570223418,0.7809176799760839,0.7792715936667572,0.8005316192469824,0.8097163596619007,0.7650482531027295,0.69561176631577,0.62064437242565,0.5502241188006817,0.47512512836118914,0.3986085730341178,0.32233107559930596,0.25089603462483134,0.1773810273925821,0.10092496152789343,0.028280879305711992,0.0,0.05282430196008647,0.127234686387817,0.1975845260749839,0.27307871959871144,0.3495682859832657,0.4234126750805943,0.4945859679198922,0.5707845057579385,0.6473070096828654,0.7238296055747878,0.8000515933596511,0.8515518420160534,0.8220525111916758,0.7899754559327116,0.7735881817512914,0.7494404295859299,0.7133003178908589,0.6714505051285528,0.6431437122142053,0.6561741537288402,0.697187725420087,0.7453799958281196,0.7794824523203762,0.7971040451095793,0.8050095257744941,0.7975735548702115,0.8006757553053464,0.8069918583377554,0.8116307057589786,0.7958935656750427,0.8027791409563539,0.8245352814997206,0.831168531023044,0.7806386679728562,0.7084167414664398,0.63758739059104,0.5615395707578866,0.48751544546285064,0.41648107712195204,0.3403289657665004,0.26382284664018774,0.18946534971445617,0.11930081977558837,0.07228274534342949,0.10633679929854134,0.17180216694834194,0.24437129476660868,0.32064127761925265,0.3925790674860876,0.46553516936890593,0.541989828738828,0.6185124246307495,0.6950350205226729,0.7715570284894818,0.8464262934885297,0.8748067396814777,0.8388254478477416,0.81606055193342,0.7978244336629811,0.7694242288449912,0.7293866188674808,0.688127063794752,0.6678662866648816,0.687161392093499,0.7316252588022133,0.7797856043652479,0.808709903201244,0.8274886313382815,0.8445732971124206,0.8490575732224345,0.8281753752075126,0.7971211246715949,0.749584894385985,0.7086182297798406,0.7067646455475031,0.7431304357319629,0.784785494340639,0.8127450554801682,0.8363916995065178,0.8555901866326349,0.9009308668713437,0.9631452808041251,0.9957742343380048,0.9493705178311732,0.8780807285666309,0.8024744299118952,0.7320073014418961,0.6570622843055348,0.5805518180591599,0.5082550887608427,0.5040543614100358,0.5701062784992513,0.6461067591440804,0.7184631865225853,0.7898678062847398,0.8492178382936767,0.8605456759094653,0.8457271270331644,0.8287093569013865,0.8353195456108836,0.8411306951147849,0.8331633962047208,0.8305714371391476,0.8263394435866377,0.8312533098123284,0.8316235996023883,0.8183626953095046,0.7863820595416812,0.7433665697236923,0.6964894391269499,0.6697116362330556,0.6953012775281165,0.7358419977356755,0.7732140791771743,0.796058899006414,0.8127515778955682,0.8488497575020174,0.9064644264227711,0.9625725643843163,0.9542354151152842,0.8889098543341963,0.8156910168163419,0.7445117614110434,0.668311581974503,0.5922660666460274,0.5250055439191593,0.5211292996255651,0.5903468331365108,0.6608320813218646,0.7353715423497632,0.8024039982989718,0.8370549351758968,0.8439926703452908,0.8237451943559971,0.8086434208170298,0.8220156361131096,0.8327951164845894,0.8250914048393655,0.8245635539330199,0.8411319769503877,0.8504669962674151,0.8378266444293226,0.8088387270423386,0.7684236573267617,0.7228202602423152,0.6987901605721253,0.7258371049938847,0.7645746472734521,0.7982078429518257,0.8249280801437201,0.8452959866150206,0.8862761953380472,0.9462238897528396,0.9999999999999999,0.9908302058841397,0.9262040356719085,0.8504457294277686,0.7739242946380577,0.6974018712028477,0.6216839684186019,0.5818273605769068,0.636544368527222,0.7067439437688162,0.780438303054035,0.8459162737185105,0.8705994747948128,0.8619085263975522,0.8372304703950285,0.8301308467244005,0.8400496017506266,0.8383786784460988,0.82369622719137,0.8164274997360449,0.8294522900745599,0.8461315065291793,0.8462576456564356,0.8202832978141253,0.7800758165669751,0.7362978526008149,0.6997122667225427,No
0.9304570343050453,0.9083485364383694,0.8856492263869062,0.8651330574112077,0.8507123790714319,0.8179354764517301,0.7794199031796463,0.7368646254604405,0.7251699890829499,0.7623206142028667,0.8154878603749764,0.8612017321195518,0.8856988898695226,0.8920139584526185,0.8882681989458001,0.8809182892628438,0.8824834303619309,0.8871692165456733,0.865014141242066,0.8505657689311843,0.8661496530448307,0.8941937594899019,0.9057653782456025,0.8437370630543204,0.764650772732163,0.6839483284284613,0.5977161782672411,0.5159903678523718,0.43813315826066,0.36865021926795194,0.28777307580329303,0.20990294549714794,0.1256446261917603,0.04544511743189261,0.0,0.0521081292221115,0.13744111353459987,0.2181634746018517,0.2988798593006696,0.3784235112663108,0.44950385785839986,0.5345540551408241,0.61382862785445,0.6961563165999691,0.781216576766051,0.8569827019576708,0.8972045372961706,0.8924733571280714,0.887069957202256,0.8723733782499523,0.8415104055829177,0.8090534041186443,0.7696682681270002,0.7555199834491999,0.7877220039924762,0.8409038343986117,0.8878398865866555,0.9234036016310452,0.9374564311454585,0.9381438053457272,0.9257213945072162,0.9234669070013644,0.9289381747037329,0.9323769252781657,0.9105132134591263,0.8953535844260441,0.9114889395211454,0.9426276123282848,0.9339269897547304,0.8632115818420103,0.782503174749489,0.7044093521533696,0.6206069289430458,0.5350289571135234,0.4576035724986911,0.3869461608894067,0.30960844369573937,0.2233270093779769,0.13999824882958767,0.10526392456420419,0.15916932794081884,0.23774878846771919,0.323835376249235,0.40815272752554277,0.4860676013445562,0.5715238251886303,0.657939315589636,0.7415162100676098,0.8198324643464279,0.9017302211188571,0.9345050862752771,0.9243836284978508,0.9110607895007687,0.8912717810480519,0.8697667267534428,0.8346198075333506,0.7968649919126491,0.7808018227446429,0.809278505769683,0.8568019293046549,0.9016568620913763,0.9291589359638999,0.9384915633647732,0.9371550213073379,0.9289083692073621,0.933801722165922,0.9343559410272899,0.9308473829085437,0.8978957038779407,0.8910916409327649,0.911044165278351,0.9375201898414101,0.9127999283523855,0.8322382921590978,0.7538752406704308,0.6704404126115135,0.5884000052327711,0.5088838430144904,0.4228927677374026,0.3425579854960856,0.2613767389119721,0.17585135806697982,0.10197773660861342,0.08573274742500137,0.1532120782940103,0.23907693301144062,0.32014860545209567,0.4005902954156859,0.4868632088932008,0.5719695249031438,0.6497449594899516,0.7345494162611119,0.8209486080077242,0.8988275539775916,0.921168737045462,0.9132115389606552,0.8955007404264519,0.8816871734357923,0.8565903503691576,0.8209628436958074,0.7794518257373086,0.7480602045654177,0.7580860269490588,0.8053762516074088,0.8568794820384198,0.8388836605710894,0.7949052755466197,0.8026448274174343,0.8460221389750704,0.8801860399475072,0.9071678172636994,0.9220756843109907,0.9411219625865115,0.9534532721130531,0.9650050627382707,0.9381579589653328,0.8664220177801798,0.7833492830296185,0.6987326685600181,0.6296082666468041,0.6423080193396464,0.72361545030923,0.8079279137872362,0.885307031297579,0.9595235768143016,0.9933158215379367,0.9712794358034726,0.9419071769507914,0.9282187134260733,0.9554887910845979,0.9664162407099863,0.9661573341939846,0.9632811176433922,0.969300628181367,0.9749521546498943,0.9717539468108836,0.9608946097461875,0.931027108109395,0.8887800684116782,0.8425959778363297,0.8264637072715793,0.8579156928594984,0.8951469744718858,0.9183672466890127,0.937081351665461,0.9509046373058772,0.9635774241416528,0.9856742114241355,0.9782350394215451,0.9112566093378989,0.8336701352897073,0.7507886191115545,0.6644213074410337,0.5892778877397933,0.6136009383775349,0.6975406007624203,0.7761762650772195,0.8592931422913221,0.9434702045138594,1.0,0.9932291500960004,0.959989336146291,0.9337072347163,0.9392110462411876,0.9630636099390872,0.9632254723481772,0.955640628255189,0.9616340434937145,0.9664865550440198,0.9664791181517998,0.9591381722908241,0.9328846897998042,0.8900366483633828,0.8358858295301153,0.7912324620285325,0.8079741176997495,0.8469277202043184,0.8795334778031529,0.9059910157352109,0.9181936140643088,0.9301093278291919,0.9379575416631614,0.9559421740690244,0.930436712582509,0.8561414767778228,0.7761941534597872,0.6900654773051553,0.6211393203563975,0.657283228393041,0.7417780493227588,0.8204565349915323,0.897061161310271,0.9582970328865854,0.9579081793266353,0.9242304197433446,0.895592385249609,0.8926962869027499,0.9140965916240544,0.9194565098760563,0.9119117161398533,0.9156630246556778,0.9200104479051534,0.919831927393022,0.9111196744323224,0.8819634153721825,0.8311281122575145,0.7777252827134415,0.7730910362166694,0.8159237032295132,0.8530889306531533,0.886856086859809,0.9078538522366879,0.9246480928373297,0.9484532218688011,0.9667318403380607,No
0.4417766893342564,0.4861457207104104,0.5027674084569967,0.46270450324056667,0.45014794195958385,0.47688258116383564,0.5004780200048352,0.5480095589099451,0.5400736829400107,0.5413604318370931,0.5939276260429182,0.6491545063805234,0.68463110445345,0.686927976172988,0.6814643295585813,0.6897372210457243,0.6898555379003354,0.6935923435758152,0.7016982424424688,0.6847567144060133,0.6877563993779853,0.7219796024292288,0.7393653289237744,0.6926350228758872,0.6140254373028738,0.528292137695272,0.44562278845363046,0.3577801498790757,0.2681696170007727,0.17923429105389965,0.09673080600419137,0.03547245109743136,0.07553494701225127,0.15627269015458733,0.24405978811314577,0.332373444732064,0.41495926369360003,0.5033305121970034,0.5910526061825311,0.6738003354609982,0.7624170364745099,0.8367055980097168,0.817516535435496,0.7525487798879712,0.7077157720587516,0.6744436657987348,0.640706699277869,0.5970870674622549,0.5497992934809602,0.5147429643907381,0.5392771281938044,0.5987704095480252,0.6605887068476296,0.7098175441926985,0.714342232749886,0.6975121115609088,0.689692820646911,0.6905470848647072,0.6964267490937933,0.6917148000076384,0.6758802576587609,0.6665334133288322,0.6873085538817642,0.7199363938725648,0.7022442037517483,0.628295854768382,0.5405521249119688,0.4518073509994457,0.36910433520982855,0.2815572276761039,0.19774630736387044,0.11170798453329922,0.029102486468008504,0.0,0.06548965458369238,0.15289131694808,0.23549019629997792,0.3239597566627014,0.41080220412143886,0.4940933497116974,0.5832534657668961,0.6707631328412661,0.7536115706470067,0.835898377891971,0.83296405485778,0.7639096146327243,0.7061296954410924,0.6665377047661588,0.6360155915097946,0.5953484798720717,0.5469800335301213,0.49443451023418306,0.4884733652066925,0.5503989883222346,0.6263347411194765,0.7109674428623783,0.788038913242194,0.8232876597510913,0.8056865293492302,0.7780959304610152,0.754420578459779,0.7314078620353307,0.717717920773601,0.709565735010239,0.7139623842020449,0.7233427640738738,0.714756025780089,0.7226590197906592,0.7527856629362185,0.7388212970093145,0.6846150046175198,0.6061080748683695,0.5226145378082693,0.43735840446585283,0.35179244402775744,0.2675123996058645,0.17809788048489927,0.08887899994513115,0.020008553212659375,0.0463539017497413,0.12667097021097928,0.2140969436640493,0.29676398325757314,0.38542782437771017,0.4733362587147639,0.5560166143551027,0.6447143705270278,0.733110272767857,0.8119320969323313,0.8242203432997405,0.7568106588714058,0.7037983934969373,0.6686436460772897,0.6361134811048933,0.5964025077490097,0.5479949532662928,0.5246286014327245,0.5716674831219094,0.6196374485804771,0.6593366398502823,0.6921933464194857,0.7280058860482695,0.783960187681238,0.8546490735371363,0.9311812074102276,0.9854658051542039,0.9438272425787345,0.8617095639175812,0.7773125344683779,0.6879185704512115,0.6016316196901318,0.517904586187273,0.4291921661226511,0.37675757416630595,0.4347297770729278,0.5225071850965856,0.6051316688802534,0.6912800219166849,0.7546667581086576,0.7875331446900623,0.780301272120762,0.7485904988520765,0.74297606700941,0.7491505704929494,0.7386361383449981,0.7402249690683717,0.7478745533754904,0.7614203172309292,0.7842048323608298,0.8072102829790347,0.8369853859311879,0.8570034984175524,0.8350341743579796,0.7772277329653737,0.6988305646537892,0.6181005376678518,0.5469022669395677,0.5436627647360236,0.5961701108274166,0.638690643570229,0.6737276987441011,0.7065697169562676,0.7589281443205526,0.828102935006957,0.9048299784470452,0.9762010571793375,0.9819628841066134,0.913656874931286,0.8402770381354357,0.7590791912708378,0.6722230467640556,0.582672706395461,0.4965586009271802,0.4351237816861321,0.4768159072211494,0.56372943728033,0.6455985302511899,0.7201817724100404,0.7519880137982612,0.7417317724914924,0.7097268978456149,0.7033193495112472,0.724016741031389,0.7223083559726723,0.719807728973827,0.7222179316041427,0.721162525385802,0.7362313242249047,0.7532063178481151,0.7376970053301241,0.6925053013462642,0.6288698310174604,0.5669123403710826,0.5603004126349816,0.6062970699097224,0.6494048376699092,0.6872250510025265,0.7182542905293164,0.7614091292713633,0.8255596914947,0.9002783570303893,0.9756091875175766,0.9999999999999999,0.9344225183410365,0.8521583034013259,0.7634267467008519,0.6780752473362656,0.5935059208319308,0.5041022227304167,0.4183922388462361,0.3687599213728622,0.4292286648942475,0.5167601338559816,0.5990777433789362,0.6813368349645993,0.7515636071056183,0.7727673974847268,0.7543540345578362,0.7183316222247164,0.7172658863195803,0.7347876475903118,0.7268609026296738,0.7212564133624696,0.7232529888914091,0.7132009278944603,0.7131571830622411,0.7183821311413924,0.7053195100580546,0.6648765621942861,0.617629788084383,0.5697167289934465,0.5221016157644643,0.5498257659090683,0.6021258721726143,0.6280312142890839,No
0.5662065147843696,0.5600548538896808,0.5517655554014453,0.5418112210939938,0.5227782983635207,0.5079310585881607,0.4825357859115351,0.4519732817992501,0.43137250397828963,0.43223148135859213,0.46071071871271685,0.5024189499178695,0.5461929149510967,0.5811350070225787,0.6012803968837765,0.604999314444679,0.6119856569438955,0.5977617842041538,0.6103642426513254,0.6155539565052957,0.622536958337562,0.6250466283246126,0.6240748725818794,0.6332436610755843,0.6391398882817638,0.6425139481794391,0.6409017567928106,0.6470323113224334,0.6606082243557454,0.6860595183840954,0.7132181164038531,0.7200828984016066,0.7279333435971012,0.7008554650766992,0.6316543420435274,0.5540263716498299,0.4844657709549185,0.4097885848907059,0.33231885158848096,0.26322726674354313,0.1878572746023972,0.1131713707234796,0.06617891705759704,0.09428945200349137,0.1667194869205766,0.24469735163033168,0.315819272877361,0.38870307244981284,0.4668573660335671,0.5449375477726157,0.6167197803694879,0.6889245981063032,0.7670233177927455,0.8374556452453317,0.8194131178593826,0.756585013069055,0.7177341811623674,0.6980596577889431,0.6818001743164532,0.6692744028121957,0.6500119443196017,0.6261955910004229,0.598315023128642,0.5701281274299208,0.5323536579628669,0.4918123728454806,0.4683156529089485,0.4784240630492709,0.5170621278527916,0.558827562236333,0.5945413947186009,0.6126512550573215,0.6050099537043545,0.5874934035458517,0.5835119769164243,0.5903906381159172,0.6071912070333014,0.6171495215451679,0.6291410489415696,0.63980970553152,0.6408108416439688,0.6409469885027361,0.6448244065910744,0.635430601165794,0.6274085279932997,0.6204523346385726,0.6349976553849572,0.6401977683248474,0.6311184703335999,0.6133029505161369,0.5601300461131453,0.49204576820289914,0.4145438428163204,0.3363246764468515,0.2593730339453757,0.19072828657344432,0.11514181240605215,0.04676539498952059,0.0,0.03647728860990762,0.11153999516442825,0.18014042944525044,0.2568592247383572,0.33507764120539485,0.41305436548525987,0.4837336904052254,0.5570727158637592,0.6308995016265633,0.6721701565449418,0.6373784152098603,0.5952885016951175,0.5764775938863678,0.5651571449772526,0.5633222808493774,0.5509293062695675,0.528333316849229,0.49709237893479896,0.4691378854434609,0.43727015364325195,0.4184846481392608,0.42626843649229973,0.45957988708527253,0.5032889673331737,0.5421402332544449,0.56341474988603,0.5609757111952978,0.5485370164735923,0.5427816880011154,0.5546643446069686,0.5676948978949912,0.5797467434774561,0.5817002425362547,0.5892317207533257,0.5976275568679945,0.6267113894173209,0.6226912512423914,0.6204881527745658,0.6188310570241504,0.60123517296141,0.5886215770190844,0.5839524965704874,0.5938126567923154,0.6035654291066708,0.6035200124676865,0.5814209492473532,0.5440906720894647,0.5030785544878251,0.4644979292125566,0.46458164713329886,0.496371918639672,0.5266049050609394,0.5594737566740209,0.5843354199783204,0.6007607522133136,0.6042779798723337,0.6027245551744902,0.6190685070005233,0.6519712970792444,0.7047259423687224,0.7686636472761417,0.8144313198936075,0.7813540924477418,0.7164141222686333,0.6414799438484708,0.5661099517073249,0.49701836686238754,0.4195729414278475,0.35511758287169926,0.3890638073091417,0.4614267242425292,0.5301125153465289,0.5958919880603948,0.64660304596475,0.66487520464187,0.6759663063118486,0.683077494760036,0.6705858366692605,0.6668818836953463,0.6681874247881194,0.6794095134831677,0.6839367331823434,0.6801416505701456,0.6717078958205187,0.6699517039094176,0.66691121864929,0.659012611577888,0.6498606403728227,0.6354343381246279,0.6228136411996501,0.6319085951353749,0.6488727730985779,0.6470436653474168,0.6383493392651274,0.6060183733269326,0.5650324489508578,0.5252365893818132,0.5176023596398631,0.5502849155953977,0.5929638692892967,0.6230646677613647,0.651001022462868,0.6743646140323696,0.69346857014003,0.709808847522551,0.7268271434762492,0.7451694191819835,0.7804143213804169,0.8369983057547477,0.8882827811754068,0.9513764393539974,1.0,0.9747791221982793,0.9101409778744189,0.8340441780295746,0.7572782371288054,0.6886975283661099,0.6120862991585918,0.5351724960367119,0.5076669456556608,0.5668803735498686,0.6392921803072782,0.7076170469907681,0.7542234309799944,0.7597497420263015,0.7512816540124199,0.7457660543104456,0.7241246040256035,0.6978132234787249,0.6790100304391102,0.6812832603678447,0.6901415335104919,0.6848758250912064,0.6750934736786505,0.6609371319896984,0.666883917565154,0.6571057133712794,0.6577547254498772,0.6532887603728961,0.6460926412569035,0.6458931171762754,0.6449872620866275,0.6283639561734833,0.5992200124794755,0.5604395943880705,0.5165387978931586,0.4774422318463072,0.47242140332256577,0.5011504882190856,0.5289971613705657,0.553363254337019,0.5765686215031431,0.5870160721497739,0.5903870901257697,0.5960622358492569,0.6133949050842276,No
