0,1,2,3,4,5,6,7,8,9,10,11,12,13,14,15,16,17,18,19,20,21,22,23,24,25,26,27,28,29,30,31,32,33,34,35,36,37,38,39,40,41,42,43,44,45,46,47,48,49,50,51,52,53,54,55,56,57,58,59,60,61,62,63,64,65,66,67,68,69,70,71,72,73,74,75,76,77,78,79,80,81,82,83,84,85,86,87,88,89,90,91,92,93,94,95,96,97,98,99,100,101,102,103,104,105,106,107,108,109,110,111,112,113,114,115,116,117,118,119,120,121,122,123,124,125,126,127,128,129,130,131,132,133,134,135,136,137,138,139,140,141,142,143,144,145,146,147,148,149,150,151,152,153,154,155,156,157,158,159,160,161,162,163,164,165,166,167,168,169,170,171,172,173,174,175,176,177,178,179,180,181,182,183,184,185,186,187,188,189,190,191,192,193,194,195,196,197,198,199,200,201,202,203,204,205,206,207,208,209,210,211,212,213,214,215,216,217,218,219,220,221,222,223,224,225,226,227,228,229,230,231,232,233,234,235,236,237,238,239,240,241,242,243,244,245,246,247,248,249,250,251,252,253,254,Target
0.5969073007591097,0.5969357103075816,0.600151502363844,0.60473848746458,0.5952467879342207,0.5842043280219087,0.5864970145561399,0.6037000413093139,0.621255747841595,0.6299568684619536,0.6119458567313416,0.5737403728031709,0.5325356532516137,0.48161340210603565,0.4252038512086205,0.36894963889899324,0.3187583161470722,0.265136857495071,0.20861751047337562,0.15210103530852193,0.09867129299465471,0.04883739227534001,0.012720767885253004,0.038238998070095676,0.09191743102702143,0.13422621871665963,0.18000728128714472,0.23419473398834456,0.29072369797997877,0.3465271639293217,0.39592764831532445,0.45077555835324734,0.5073106283378475,0.5638487771899401,0.6193159024549217,0.6685614602107381,0.7238986960416771,0.7804368767621852,0.8369768259205426,0.8935167750789008,0.9498472586491813,0.985845375174498,0.9480799552838737,0.8917733491174076,0.8393740954651852,0.7880768783627712,0.7319844869967147,0.6818767481338501,0.6294138883920106,0.581429623752205,0.5370994204570161,0.4979933155371927,0.4611797152697823,0.4327921163146684,0.4050409041378278,0.37357432194441187,0.33644303164255085,0.2968239553432013,0.2576844897238435,0.2195281100284625,0.1863919859651002,0.14686421125906923,0.10584505655003396,0.06548096645733281,0.026923389074841264,0.0,0.010575294963455217,0.046891929879935956,0.08963957793772415,0.13753393601420205,0.1850245447384724,0.23362377179315397,0.2879541075044567,0.336456481725637,0.3767918132138952,0.4141010997158947,0.45901628115874127,0.5025615083483252,0.5407062526095818,0.5689147119930948,0.5898418615398344,0.5966884033026745,0.5915174070211657,0.5799312159820487,0.5746703667576156,0.5697101983742163,0.5780901234650475,0.5924134241038639,0.5968999449074726,0.599880692609478,0.6062036923228902,0.6064807638693417,0.6063955687791875,0.6011513736325433,0.5871376415318537,0.5717252292086707,0.5786524470626784,0.5989180139592167,0.6203854992374236,0.6334033263249388,0.6168822641744638,0.5701856866673427,0.5140682148337472,0.4575284420271022,0.4009884928687435,0.34445410861496395,0.2897534157401327,0.24541760035975102,0.20751883434786356,0.16980007187263824,0.1276903841969539,0.07355062370303433,0.029034078931110985,0.02821916178893158,0.07379725896780309,0.12622905315374267,0.18271231326852133,0.23865026692176117,0.28820994020995494,0.3427658107877627,0.39929781893231775,0.4549174089603252,0.5041472808089045,0.5593480718611314,0.615885351422822,0.6724253005811796,0.7288528716346387,0.7804194574389018,0.8325430666064852,0.8890087045563368,0.9424996299922583,0.9453687585636956,0.895267126686681,0.8393942298755879,0.789943071050484,0.7352658408874513,0.678733873007348,0.623212816683189,0.5759146320760005,0.5366862970533912,0.5037062794357361,0.4746891841677239,0.4428347700549422,0.41039250679668426,0.3753271623538674,0.33887331013909505,0.30318810753786307,0.2654140303546053,0.22477871197226218,0.18101847908375657,0.135427279445826,0.09567396214917623,0.060019480918692025,0.03780370607892092,0.04663711632583145,0.08734030188678021,0.12414490600106398,0.16445514492604052,0.21213475845216978,0.2604251443369996,0.30875675300324845,0.3560356150088799,0.40451150226420163,0.4499256124934716,0.4942893685406018,0.5362909947287846,0.5750418927605436,0.6013007174029541,0.6138028531139093,0.6082201750859575,0.5992261286978515,0.5941634088904899,0.592389468261743,0.5978270832795094,0.6045304042646849,0.598759910184355,0.6026408717915446,0.6104552416930153,0.6159024458532862,0.6150021456985606,0.6058370707545517,0.5934731864934402,0.5949669861642903,0.6102073236129961,0.6269002049830243,0.642858744612778,0.6220730035158633,0.5720259883616816,0.5225763780668173,0.4679953803742247,0.41146302528254197,0.3551038156369797,0.30419435071387424,0.2513752532734339,0.19487733594710255,0.1390431634517657,0.0897361199689295,0.04397122228598338,0.055377960827038386,0.10793028059158094,0.16204214939849693,0.211875128569061,0.2679733654376668,0.32451314330993086,0.38102858662572014,0.43449960255055475,0.48481898830787906,0.5410994515909677,0.5976393917342684,0.6541787337344298,0.7099990106467604,0.759419393645538,0.814230798750945,0.8707656401586057,0.9273051818251694,0.9826249995100387,1.0,0.95270225603752,0.8963144449986222,0.844855397352898,0.8014752426715819,0.7552405678841323,0.7048544983958323,0.6535751153680374,0.6050605754717353,0.5595302802155429,0.5191366349694819,0.4822817383160731,0.45640509135505236,0.42758779756827536,0.3950621922097248,0.3559932388713454,0.3186441940408056,0.28005643342802666,0.23966280485194758,0.19745036883197575,0.1564704345036454,0.11718631806704694,0.07551216857293408,0.04234742075245945,0.038968088473450235,0.07024049990846604,0.11036218539018816,0.1570923579090837,0.20448175383203115,0.25739132588868996,0.3068728833929799,0.35675453105606314,0.403842129907761,0.4492089997483275,0.4944269464394242,0.5377541653041578,0.5740364512773435,0.601551174480145,0.6141878788203186,No
0.10230974404103088,0.11509528537422764,0.14009278895743293,0.16466013604568353,0.17213502828026894,0.1500779285983227,0.12267865526193233,0.10343122976727248,0.09835363318773871,0.09119386877199587,0.0681176065423249,0.04093749836282001,0.021272332223915447,0.017463934157842087,0.03372360180691403,0.06041228048593095,0.0899710192271348,0.12059488510174399,0.14993915663856128,0.17720996240989495,0.20329764314225107,0.22921449625938495,0.24773541464743287,0.260274092049152,0.2628622052459464,0.2617829908293836,0.26579298741314683,0.2716551352529182,0.27227902696103756,0.2722796821719342,0.2721927693727124,0.26837427445946216,0.2570031035410423,0.2371599744568973,0.21910783899596553,0.21746455643753104,0.23807795533656528,0.2645972925458966,0.28601384771958327,0.2833676826080145,0.27630309104942596,0.2723887333906798,0.27079829082814477,0.2641249413183484,0.2592038708141977,0.24889116387271093,0.22144204157944092,0.21025800929863236,0.2326349660396776,0.2676563072111888,0.29898680587487925,0.3328760753592104,0.3686482357153933,0.4044283826012163,0.43955008283737707,0.47030661991619893,0.5052039429738768,0.5409833394859729,0.5767641256051563,0.6125449117243393,0.6483212856037965,0.6826896080141993,0.713665879422589,0.7490993891348146,0.7848800154949191,0.8206608016141022,0.8564410662326838,0.8916636846884247,0.9224554752160823,0.9572166629880996,0.9921626993978812,1.0,0.9712659211382724,0.9379495382390628,0.9021915345638603,0.8664107484446772,0.8306814327947909,0.7980791958543285,0.7655811358676698,0.7298564307932804,0.694075902746456,0.6588027455615031,0.6279830934024515,0.5932993315702373,0.5575213270227009,0.5217405409035178,0.4859597547843344,0.450179408930822,0.4149612245289973,0.38419181654361734,0.34947595560169065,0.31770023770583755,0.2939309240072965,0.2665320319416722,0.23858893334187048,0.2165630430864749,0.1995374513377659,0.1911669408107035,0.19012210368496651,0.18025989202485848,0.16142355685751453,0.13735417333536382,0.11195567998051659,0.08792533345317388,0.062375475555351945,0.03814709683792561,0.014901632908361884,0.0,0.005332929295098321,0.029242509071556677,0.05737877938756142,0.08599179674875457,0.11466601752771399,0.14444312969389483,0.17268410891806274,0.19916886350100937,0.22563042319694615,0.2502387393319234,0.2630407804874657,0.2656669062090302,0.2635257882690958,0.2637917711289819,0.26950921643467884,0.27135472163009666,0.26791354508177156,0.27183878000492223,0.2665747287112068,0.2494268173580232,0.23044557758891715,0.21685007009600454,0.22786084767522596,0.25333701779735773,0.27987662415636705,0.29452064031958325,0.28193382201712813,0.2725434155132036,0.2685790564382098,0.26272353109639,0.2584987882082852,0.2531163852232903,0.2423054961150961,0.21722535278219435,0.2032012248726518,0.22287630274316728,0.2578265718280621,0.2925686940586172,0.3233589801084178,0.3586021453935684,0.3943825808075918,0.43016336692677504,0.4659367228382676,0.5001098944104538,0.5312229539462643,0.5667177828914509,0.6024984706973548,0.6382792568165379,0.6740438606209314,0.7075499321659555,0.7391984442609851,0.7748335744679349,0.8106143605871174,0.8463951336490685,0.8820368284996487,0.9137659545003176,0.9424335066696348,0.9301179967320967,0.8947725873995303,0.8589934427001409,0.8241981217481174,0.7934151445826689,0.7582177556818228,0.7224375204964304,0.6866567651001472,0.6511087487341172,0.6198309585227304,0.5858724528725814,0.5501024167258504,0.5145108588008114,0.48304915282755,0.4493160563488112,0.41416629603392296,0.3834112321568157,0.3487910209175835,0.31753990304602975,0.2855168467611693,0.2556894931456939,0.23124918248545634,0.2142117797826586,0.20160066731240267,0.19404264416193273,0.1840577230687721,0.16516945778192915,0.14276629542514796,0.11970055582857153,0.0941218799086121,0.069960968579999,0.0466027790404584,0.027516313282824,0.019902998871847877,0.03449611271872555,0.06044717652581555,0.08741807819761449,0.11582526180308572,0.14442876416641837,0.1726615225174808,0.20117096326579298,0.23048560492530856,0.25331989508287145,0.26812003117186145,0.27221593629732,0.2722796821719342,0.2722796821719342,0.2722796821719342,0.2722796821719342,0.2722472908364608,0.2693846600053893,0.26276211814248684,0.24689742561432326,0.2265580620209091,0.20951485163721273,0.19837260896208764,0.21142938124125776,0.24242762410006202,0.26891468038651656,0.2765357508381441,0.26799372746926275,0.26572062174111744,0.2644512068247755,0.2594148189761749,0.25476041364537605,0.24641984033557573,0.22344347269440368,0.20436479653087214,0.22169976858223972,0.2529555829316543,0.2885858287618859,0.32436656726057467,0.3599155148605724,0.3912119980600979,0.42514844243702177,0.4609209325324657,0.49670171865164914,0.5324825047708328,0.5682092589898875,0.6007596658689662,0.6333113383755771,0.6690368224222292,0.7048176085414126,0.7405933788272769,0.7749226710700352,0.8059185198845931,0.8413720736627277,0.877152712311992,0.9129306390830985,0.9461435200620019,No
0.254713736729659,0.26470474865679394,0.2921717828368833,0.3237149903647458,0.3592145707036176,0.39618299395471523,0.43656298984784736,0.4758955468273649,0.5158279554885961,0.5573405583453683,0.5952556204842128,0.6390991870653564,0.6829422021642415,0.7206752256453377,0.7624294880779581,0.8065504495224642,0.8482297003414794,0.886055290834542,0.9289628677482731,0.9651258231526425,0.9891803731090345,0.9703062285708448,0.9321924175405267,0.8882018177405016,0.8440597625923685,0.7999575028207646,0.7596726130205171,0.7206331806765844,0.6765985193969031,0.6324564642487698,0.5883144091006369,0.5441723539525036,0.5000302988043703,0.4558933943431538,0.41370066684799855,0.3762444492687893,0.33256890130757233,0.28842700046077185,0.244284945312639,0.20015182360287453,0.16192962635626373,0.17439183946722103,0.2134644705354274,0.25361791870059447,0.2876495988974377,0.30133088233265326,0.3013814442652294,0.2924771220563023,0.27313236709122735,0.25357505401905267,0.2621162742542382,0.27785976709539906,0.29018630630717235,0.29264876684761143,0.29234542397709085,0.28721875028846755,0.28718240619397895,0.2834250038938657,0.2776355871369405,0.27218123595040566,0.26035587525896986,0.256447241328819,0.2614022800753675,0.2599666745684015,0.2703084989416522,0.27214538090412566,0.26567272605637693,0.26334554156860035,0.2509103572794653,0.23094279209497914,0.2020888143033659,0.1726600095371642,0.14257683353999728,0.11085600964505149,0.08080758228864782,0.04900617613834468,0.019541900348766905,0.0,0.012215260196672295,0.03759756703963579,0.06491840670276106,0.09228297292778698,0.12043392490772353,0.14848467038773783,0.17526758807807408,0.193792804409616,0.21228778057963527,0.22843477357196318,0.2403303878735774,0.25258495440377793,0.26393928100593667,0.2862146886696362,0.318120033528138,0.3595223163685761,0.39670108775090096,0.43779309176988224,0.4755157977518727,0.5192964197526746,0.5602782992504203,0.5986803010092729,0.6425861087980527,0.6826206236767196,0.721906543631941,0.7659496222841335,0.8083299151381524,0.8456326488269861,0.8892202643788956,0.9291059568180788,0.9671972363840733,0.9905997853789601,0.9731308706885882,0.937115320926587,0.8937724523589807,0.8496311324129935,0.8057538825940282,0.767691262994576,0.7262996191642799,0.6821698467456965,0.6380277915975632,0.5938857364494308,0.5497436813012975,0.5056016261531642,0.4614595710050313,0.4173175158568978,0.37317546070876584,0.3290334055606323,0.28489135041249924,0.24075320759531782,0.1996549845039235,0.20324564778386645,0.2423070122990183,0.27751283127349957,0.30434157371521087,0.3107136393089316,0.3053236426623749,0.2880512111088134,0.2661856869942394,0.2499972042235541,0.26133768610629793,0.2782983845467999,0.2869856692111037,0.28855574806998097,0.2864102646201985,0.28356594149627434,0.2834362937942714,0.27818986225515907,0.27446137203861865,0.2714066386286078,0.26493639555791626,0.257835977979465,0.2564861250647599,0.2628191290098769,0.2697543716716755,0.2694183882182035,0.26472563165799556,0.2563590400493916,0.24242594876860557,0.22045465799234942,0.1881506864231648,0.1601584472183275,0.12987058445954291,0.09826427672889393,0.06636999619606887,0.03648531868605076,0.007612337008474412,0.0006646362258342364,0.023582443405890663,0.04962307183165082,0.07723999419521088,0.10429444539250032,0.13077911352347305,0.1572709836503634,0.18277993523289005,0.20254349494032975,0.2218333244568007,0.23812304657200745,0.25428715055608775,0.26475935698595965,0.27648265465997834,0.2991574109705426,0.33223874931137787,0.36789163759843957,0.410037235070456,0.4539303670063328,0.4918676241195876,0.5333658071584844,0.5770033973290469,0.6144257876370451,0.6566752289564457,0.700740126981358,0.7400833726948854,0.7800471757777196,0.8241224169858175,0.8659095204256024,0.9036467231057603,0.946601041924668,0.9816132656818577,1.0,0.9765203530891937,0.934675351103325,0.9013098544559135,0.8724896124144261,0.8436138664123809,0.8140145127471823,0.7759630206258903,0.7319029884497867,0.6907392936100785,0.6524998271593807,0.6085640411952906,0.5644219860471573,0.5202799308990242,0.47613787575089184,0.4319991171746309,0.38935267908551396,0.3521670796759935,0.3086763785037365,0.26453457740729314,0.22039252225915917,0.17641764394084092,0.15084462206216287,0.18411343109721523,0.2281925838724359,0.26905246721636766,0.30093072043476643,0.3182532860620302,0.3181962030921328,0.30505230275108586,0.28533035405480356,0.26546258439468895,0.26312936799892017,0.277323043787697,0.2910266641171624,0.29781886034689653,0.29408890632051565,0.29265962761900943,0.2915919114676797,0.28435919940391985,0.27832071196257435,0.2742106156517272,0.26804612211613876,0.2647985029177957,0.25973767311570484,0.26340628946708877,0.26724892669285216,0.2742006768175169,0.27280116161016377,0.26312620918684093,0.25374402714675326,0.23874304416020942,0.21340117300236594,0.18398041494637463,0.15234573732279344,0.12211210620586543,0.0906213640927267,0.062029271638493144,No
0.2270479151767555,0.1922780878527366,0.1537986230259436,0.11613076627015007,0.07455452330882228,0.040637912298991496,0.020726742384947316,0.042267001004332005,0.08021761396827243,0.11797053185875872,0.15390825283524445,0.1935010749104853,0.22821138631039917,0.259378447041841,0.28467662993718235,0.30985625882776247,0.33950198742547477,0.3718848892759241,0.4120577565369894,0.454769254588105,0.49838625796294633,0.5448578902305357,0.5895796024063207,0.6362275647748823,0.6850597840527419,0.7285312639351911,0.777131197358774,0.8252556887179625,0.8689038140785168,0.9171936191851189,0.9590561682426448,0.9736932980850688,0.9345630553918787,0.8849445843878987,0.8382954108841223,0.7935401426903874,0.7439720702325285,0.6942289085369684,0.6444857468414078,0.5947425851458481,0.5450329794682369,0.4983838059644601,0.4536285377707254,0.40406046531286655,0.3543173036173062,0.30457659392023206,0.25597122782736825,0.21250043907097238,0.16528904817713785,0.1574023591613567,0.19737669658342316,0.24636583325542105,0.29110054350627657,0.33504979078059627,0.3741649411631811,0.39798841737107393,0.40757183985793444,0.4027135728845721,0.3812796744954252,0.3524068208578768,0.34040001042379897,0.3506455481016033,0.3659675221311365,0.37156110117853136,0.3675574360663709,0.35634219185849214,0.3450851831761925,0.332445182943621,0.32047142178485233,0.32031521013861775,0.329038384837113,0.33470234922578834,0.3249810836008573,0.29853960800722446,0.2670705546386887,0.2316653226774954,0.1960613110270828,0.15956264483676796,0.12063754883623257,0.08296908330733532,0.04168670329033941,0.007295722694462992,0.0,0.03157065995075081,0.06870887903261869,0.10601601457950327,0.14368326666941766,0.18376775329058614,0.21719934058649382,0.24661469263757985,0.27223905965537076,0.2972877569051131,0.3273235316276355,0.3612303754851409,0.39638486598767186,0.4302160703193063,0.4735147214971378,0.5200976876040575,0.5659801706396619,0.6114225558378188,0.6606476217821653,0.7045197534122591,0.7522670063638377,0.8003841078701823,0.8440334443659518,0.8931383135190072,0.9390482731591974,0.9821435423383791,0.9979972300754827,0.9594351054558554,0.9109228568189125,0.8674513769364627,0.8185856016406539,0.7688436510803087,0.7191004893847484,0.6693671695405181,0.6216144839196589,0.5777423522895646,0.5284181920238815,0.4786752078562069,0.4289325153768433,0.3797639352073894,0.3361145987116192,0.28798765535394466,0.23834902064900265,0.19297973144795733,0.1600742006224345,0.18874163235962382,0.23737132879269862,0.2808227199484663,0.3267283373397587,0.3662934156437987,0.39558900921396223,0.4039262794257894,0.4022213365318019,0.38252721147257773,0.35327527616738674,0.3363385038052975,0.3436440191664516,0.3613927396025809,0.3651643635991504,0.35804033339665087,0.3465796875835243,0.33985728988580033,0.32875530492961613,0.32702770837042805,0.33086944268786445,0.33753949112497583,0.33496407807467055,0.3133631681351632,0.2808928446135692,0.24556502937087266,0.20963295920278102,0.17234005264569818,0.13503351946092446,0.09838577277812943,0.0695308950546607,0.038635437554795926,0.021564937919475557,0.050564200687210015,0.08822314391738062,0.1246325594166442,0.16047875291469182,0.19580497286613485,0.2293733651763361,0.2627841461040832,0.28881968871966546,0.3136947551732612,0.3392211100905145,0.37316974951039006,0.41799649016804863,0.4621741751167934,0.5066743772956916,0.5531484171797958,0.5978701293555808,0.6444992141326753,0.6915739932603291,0.7359364761521907,0.7850055704030372,0.8288776576511598,0.8766291321368043,0.9254848880533972,0.9684442490500491,0.9999999999999998,0.982054289868372,0.9346821358862927,0.8880385725796827,0.8432833043859478,0.7937152319280889,0.7439720702325285,0.694229377753165,0.6450607975837108,0.6014114610879409,0.5532845177302665,0.5035467887039875,0.45380362700842714,0.4040629173113528,0.355457551218489,0.3119860713360392,0.26312029604023035,0.21339797426025164,0.17093650605098087,0.1891728656014624,0.23783079175187383,0.2816974463307156,0.32781364735912133,0.36830990408347875,0.39746402925679125,0.408422112713424,0.4019580483335865,0.38490986274700356,0.3654616278953162,0.3533735436117402,0.36363405035654495,0.37601773946533856,0.37670078794791473,0.37612422363951925,0.36888271660373073,0.35873943251186713,0.3446146060268549,0.33569396951562,0.337046009406762,0.3481270813642956,0.3510859228363352,0.3361272415387322,0.30624845475321494,0.273322164868008,0.23874221480555713,0.20701504923913583,0.17796476417273732,0.1412495540637264,0.10392041332443269,0.06555335458342904,0.03665477415148399,0.05259429457505216,0.09094480863262255,0.13293631698470798,0.16911190325428116,0.20712474616847643,0.2170787122946496,0.18579630983834128,0.18719552575686693,0.22311002647950895,0.23650255481678029,0.2568702590740337,0.2865849123866935,0.3113048355695829,0.3385170391196062,0.36755485966759927,0.40367521993939626,0.4444689517927891,0.48752116603728446,0.5340544504405849,0.5784093067135856,0.623743980585417,No
0.09706377714431591,0.12799243522255055,0.16279098667710223,0.20133297028539676,0.23475900179202358,0.26944206967454654,0.29561282526987687,0.3192717650313248,0.34014865419455353,0.3610338718742645,0.3780938406905825,0.3938009174153867,0.4111575789379127,0.4410000674170391,0.4843394578948883,0.5326292863311577,0.5774490517092452,0.6307385765054379,0.6792666415401143,0.7277462601562064,0.782324501160675,0.8363451825661248,0.8815744947060222,0.9316426970814435,0.9514246469622829,0.9204253350011979,0.8664297202911275,0.8118014879752724,0.7613565225881389,0.7147104348185749,0.6602697423126538,0.6056160762541454,0.5509624101956374,0.496308744137129,0.4416550780786206,0.3870014120201126,0.3323477459616042,0.27778990362994604,0.23114984396385707,0.22800652081416817,0.2687090964522707,0.31272900869028697,0.3655738095848473,0.41317043409128407,0.429818418256777,0.4312987758274327,0.44095634214457147,0.4424922154818651,0.4316100735811459,0.40681622566469966,0.3867168243528847,0.3676514017070216,0.3611976337259051,0.38297643046074614,0.3928322080790887,0.392916475533551,0.38644424520405507,0.3844860126765959,0.39273036898144587,0.3963953010499799,0.4093495179212565,0.41887139101603554,0.4288536623715633,0.43026031789967045,0.42648585483886126,0.41901859600594693,0.3928986369309124,0.3655632024059894,0.33607893158974567,0.30015711037679504,0.2630032880585731,0.22170525353483495,0.17541237177100277,0.13699195550660237,0.0973294412574297,0.06187542928667211,0.05080860814489885,0.07698289851895845,0.10838695030772194,0.14394642477282749,0.18171439682086232,0.21815477251686555,0.2535450540599229,0.28227054682462627,0.3095998095084742,0.33680794827156046,0.35923968348336355,0.37751221330289497,0.3934500310720124,0.40741067632192096,0.42771266224971627,0.4555109992345907,0.4972984777616294,0.5434014717163544,0.5922031492957618,0.6462984196778019,0.6918684801359485,0.7436516489052314,0.7982955497466733,0.8520689395371128,0.897077910278633,0.949102615767736,0.9843803730551943,0.973054356858343,0.9252504318655428,0.8771825851021469,0.8282739411427131,0.7736797624984042,0.7190260964398962,0.6643724303813883,0.6097187643228803,0.5550650982643723,0.5004114322058635,0.4457577661473555,0.39110410008884755,0.3364504340303396,0.2817967679718312,0.22714755529433117,0.17742806963004076,0.1901348941327825,0.2343663435283232,0.28061199294256123,0.32826416670261804,0.372797779460037,0.4139710316047591,0.42858991814296377,0.4251380398914233,0.43100678877474974,0.4404929379015299,0.4327766274627043,0.4090745044808217,0.38331132419138414,0.3675524937089365,0.3565657451519517,0.3683623260232187,0.3874933871131818,0.3862114198633877,0.3806084528842877,0.3808847193754932,0.38934692356405365,0.3937701269314464,0.40339715473758075,0.4054596190474842,0.40495137823587046,0.3958654604910852,0.3873398192711994,0.36721397250214616,0.3400661679513688,0.30713451250453416,0.27547061657359806,0.23460175946663475,0.18880977002037014,0.14635741118785206,0.10794539356600197,0.06750234247029985,0.02736763610688997,0.0,0.013429515180984453,0.04762940620983902,0.08738083183003997,0.11972944838828692,0.15228095230002126,0.1885506288551424,0.22172013975572935,0.25371858000337455,0.2813694525383841,0.31137354737460154,0.335963777800415,0.3590659751950136,0.3862036215043696,0.4171959250660653,0.43477620506346937,0.45453272378578524,0.48592741903115333,0.5283137106308915,0.5734228969745987,0.62539045015732,0.6704536048743852,0.7243014098472795,0.7786675167296233,0.8250266638828092,0.8758233747141928,0.9303710033184489,0.9779822110722571,1.0000000000000002,0.9688615313377651,0.9147828838256873,0.8601292610896103,0.8054755950311023,0.7508219289725944,0.6961682629140864,0.641514596855578,0.5868901637509716,0.5365917589656084,0.48982172129927215,0.43535452140163344,0.3807008553431255,0.3260471892846175,0.27139352322610955,0.21674201509892188,0.1662354098886607,0.17658641464251268,0.22780276934857424,0.2728922801619442,0.3201155372943816,0.3665411351510295,0.410345700233661,0.45219602408555626,0.4778151428440831,0.4758882439253729,0.4779270893302743,0.4801214692180056,0.4716919782834219,0.4412932579392763,0.41653273275327796,0.3974077366218889,0.38625337362857004,0.39185388320305736,0.4130963823177505,0.4178856317310242,0.4174886994427338,0.40861339197777524,0.4061239251554747,0.4155780649425076,0.4180487222922318,0.42514563084700785,0.43032158139850796,0.4300730986540826,0.4216787086560647,0.4127868730145414,0.39202827071551805,0.36118027391356766,0.3261756338626649,0.2903420547754776,0.25056893340285225,0.20959514494817144,0.1691199902340137,0.13616390044588833,0.10737968972667145,0.06927592864142773,0.039844202098333614,0.05337491275967721,0.0844426137261729,0.11769385535422039,0.15953222190869965,0.20013514062164495,0.22627456090852616,0.2525759201484288,0.2885015222055165,0.31619316817138743,0.34293649153362193,0.3608982413469739,0.3821083787298234,0.40271980467820057,0.4155927344909698,No
0.5007482250248714,0.4863380314562824,0.4734356679625322,0.4725569147366473,0.4783234704988084,0.4972867492780475,0.5030428300113159,0.5022676898701404,0.48443206727063925,0.4510808083965876,0.4131150094694007,0.3725170895300809,0.32788669373827695,0.28310203704103554,0.24093758740818316,0.19877298644013397,0.15760557842692746,0.1309412817215807,0.12776894118917115,0.1560430844080245,0.1875974836280654,0.21489243115822276,0.24803290392179456,0.282513707445724,0.3141494083023537,0.34330235467795234,0.36306353294525673,0.3917085540452332,0.42130635976164443,0.4418195624655952,0.45763066139282627,0.4770024039761256,0.5153416057040516,0.5655739798370636,0.6278546484348779,0.6874521246967986,0.7396798398287205,0.8017584604154,0.8536551808708381,0.9047051632828191,0.9058883484992255,0.860722708254237,0.8061772770072086,0.7497957600737584,0.6866175763177647,0.6233719851322816,0.5604848076972755,0.5076829560863021,0.44889237453347564,0.3856619932618437,0.32241640207636024,0.2591708108908777,0.1959321184633671,0.13601723434666368,0.08413264786225749,0.02562354371966702,0.03535728476649114,0.09700415166974574,0.1524508553448518,0.2084047825743771,0.27154101696646826,0.32906955803990634,0.38294823442524795,0.4392331992079006,0.4940618968446193,0.5487169051423932,0.5776545084596201,0.5794409435339083,0.5794397356907481,0.5776414978850908,0.5608407102598472,0.5397251797510432,0.5147820713088387,0.4817225418918958,0.46935562401865427,0.5026853962483728,0.5372849206121217,0.5589575585209965,0.564140749948109,0.5641690808833708,0.5641690808833708,0.5641102765405241,0.557152204905242,0.5520005087713402,0.5587991731929551,0.5492724305219623,0.547990768474838,0.5352062813439447,0.5194107523479339,0.5046436807014727,0.49207573407063787,0.4878218876452647,0.4893273239847775,0.5013425251155765,0.5076832131801194,0.5168989671276609,0.5046558411270401,0.4879461441237041,0.46287174426141764,0.42897722136725136,0.38693304745808055,0.34030917066720967,0.28965628717320957,0.24504420840106,0.19969465978746115,0.16145555879235785,0.12731364162411962,0.10735214056214248,0.12069131304258507,0.1610899919040052,0.19370973926098323,0.2315683858516273,0.26393185477969894,0.2954783391936049,0.3224583037590598,0.351163174873772,0.3794502037115328,0.40499565013675376,0.4250019920693098,0.4428893723867118,0.4650657889805543,0.49799766994067785,0.5424053990299456,0.5919497052900557,0.6515131012553175,0.7028547461796557,0.7639167148390547,0.8152635410516225,0.8745940370198868,0.9106286437836482,0.8948404653031896,0.8350271389638295,0.7717835144482161,0.7085381057053781,0.6460088814365079,0.594068234544114,0.534066814621803,0.4708279313922943,0.4075823402068113,0.3443367490213287,0.2810911578358457,0.21787682933604957,0.15980675382901133,0.10635046241006751,0.043462888738062144,0.0,0.0353086676659502,0.09053273005250118,0.13173184742930832,0.18858525868343312,0.25000078722985597,0.3011516424472025,0.3628596095300711,0.41689835566818756,0.4711936853933776,0.5190924015882654,0.5540391246643646,0.5683450078853349,0.5789821003590325,0.5729024927657802,0.5627301538104494,0.5411486671049679,0.5096377351141479,0.4780195138349499,0.4493539910187385,0.45243739034108676,0.48237674859671964,0.5076166151826977,0.5175714645929221,0.5069060424814515,0.5023041253280653,0.49082062763046874,0.48678732741213304,0.4747352127794855,0.47111500822546315,0.45890495324397396,0.449202011068361,0.43627928085957546,0.4139049210304355,0.398838467877189,0.4011801926974705,0.40781491541483517,0.4074659334909265,0.4256252724530434,0.43973318587961385,0.4327157970769231,0.41613514733015045,0.3909602389963176,0.36277539292785566,0.3253764272385715,0.283209147957336,0.241052727468277,0.1965696171000184,0.14890431587233932,0.12389093623504266,0.13390626898804125,0.17434401174305592,0.20988186708925616,0.2532921666146106,0.3074410759579598,0.34692044550252543,0.3785462486570861,0.4143632016256884,0.4450078268973421,0.4638475565156863,0.4865095635293981,0.5042238160321748,0.5248367602635047,0.5385668014084883,0.558494726655673,0.5856779317784375,0.6300966182025323,0.6840023146299745,0.7390337693276878,0.7977122362343883,0.8504882235601858,0.9109970141185211,0.961271882037138,1.0,0.9876106065477899,0.9384873667471689,0.8850680509720448,0.8220925074366678,0.7588469162511853,0.6956032075962906,0.6341800024207487,0.5829155160252562,0.5211361203962084,0.45789133319526343,0.3946457420097804,0.3314001508242974,0.26815455963881485,0.20490896845333184,0.14166337726784706,0.07847611707252788,0.0315062161902393,0.07083194773439683,0.13391146911965013,0.19148249256864203,0.2453830602783067,0.30840175402957826,0.3711836377527482,0.42365756293320933,0.48088174817763374,0.5312679241067286,0.5806899752643684,0.6197416716683009,0.6382210344755643,0.6403266862552917,0.6313491294289171,0.6223571773164571,0.6038004813058411,0.5767443378743402,0.5472837974722133,0.5126653171944024,No
0.5722605321839156,0.5915362135196718,0.6330466447213752,0.6595195245094481,0.620809990014092,0.5618827496117578,0.5027656496307329,0.44364854964970757,0.38453144966868247,0.325444850082933,0.27040536507195445,0.21836345453528483,0.15970710084202988,0.10988508417993526,0.08981709993054543,0.12294735363738685,0.17494511754128572,0.23392147029191013,0.29303857027293545,0.35215567025396055,0.4112144972319114,0.46541469284392045,0.5179025380943278,0.5639132153477824,0.5961757959311202,0.649876718052101,0.7089600127264268,0.7680771127074517,0.827193220087431,0.8852434625801378,0.9356240626996828,0.9855515595713884,0.9836596562742996,0.9624722042495399,0.9449200367238131,0.9273473920981679,0.9075575573963692,0.8884888692848676,0.862119247049185,0.8359734899946827,0.8006168816346366,0.7610721076333369,0.7220872186729492,0.6942013676886132,0.6876366744987585,0.7110505832056488,0.7533096594826652,0.7894263834470101,0.8306036265181616,0.8674943696749682,0.8992779833503668,0.9204814113987467,0.9200858202450095,0.904546595949371,0.9109143426963127,0.9132475735520691,0.9136822375824338,0.9231234524272953,0.9265133252088626,0.9307694683738221,0.9122475677226338,0.9098823502872324,0.9250870260335835,0.9420389756161547,0.9483413617716812,0.9343258683948363,0.9002214378892726,0.8510811532629274,0.7946988601941418,0.7432168687132088,0.6875231755131745,0.6284253909187905,0.570903976578292,0.5205099664791522,0.4624737609389118,0.4033576970907786,0.34441622821701623,0.29204222218482134,0.2373644105928856,0.1782923686456197,0.11957554970395523,0.06843220499628955,0.014720270974270866,0.0,0.04434931789391605,0.10316385416363061,0.16076140493929003,0.21105119961823182,0.2691152792732785,0.3282315791118664,0.3873486790928917,0.4464657790739168,0.5055828790549421,0.5646990408497288,0.6227668295330189,0.6731735274004935,0.7306508107960219,0.7897653074811259,0.848881461823844,0.9057025768517455,0.9212491347243579,0.9133682158034464,0.8960948398809117,0.8794744732738082,0.8632078048780534,0.8471612942972035,0.8229587659512725,0.797946672869871,0.7660490852029578,0.7286551194081905,0.6929578476712184,0.6540760779570938,0.6226942947316831,0.6100317813167422,0.637206854078999,0.6738108893963539,0.7152491749025223,0.7595113514403997,0.8013471493104789,0.8331718916352853,0.8554814748685942,0.8672940781913108,0.8700754707823781,0.8774527403950052,0.869360652925977,0.8730654246252592,0.8847746373616023,0.894400990923196,0.8836214180511439,0.8797502399704711,0.8933560676305938,0.9073954501702532,0.92129688813906,0.9328886192580583,0.9042888504914304,0.8537029453959626,0.7996437406256407,0.7436017197052966,0.6924157805550486,0.6341064178702258,0.5827614748897776,0.5268977859339175,0.4678120988725447,0.4118987299423911,0.36056540997102626,0.30184794896362166,0.24273886445365855,0.1863535328718804,0.1361942722826821,0.09928186113824511,0.11819298130034084,0.17347312585727193,0.23257993247085818,0.29169703245188416,0.3508141324329088,0.4099312324139346,0.46904833239495924,0.5281472238036904,0.583795429767541,0.6353251451116144,0.6941136608401177,0.7532307608211428,0.8123478608021686,0.8714640980547943,0.9283270971998938,0.9414878054663354,0.9237291589021139,0.9117982899112078,0.8999890041657241,0.8879595634557569,0.8713125505412429,0.8484950260759163,0.8154983977728796,0.7799132248369276,0.7468935692795997,0.7124946732095165,0.6885605669931714,0.6798567057760203,0.7024758928243056,0.7410641494208439,0.7846650077586663,0.826283116650163,0.86620542070594,0.9044502131892955,0.9284285892425741,0.9367667440934746,0.9424879374667685,0.9406713499765793,0.9498893555458054,0.9543413864541233,0.9547978202127441,0.9733138312493514,0.9660684552451102,0.9595359882208225,0.9704466378966685,0.9850499889739268,0.9991698688627655,0.9915506370518781,0.9639214366760327,0.9164617269251967,0.8702620198373563,0.82512571058512,0.7744738542455887,0.7158911484231214,0.6568863609572422,0.6037481583228992,0.5498761897831956,0.4908259630233698,0.4317088630423438,0.372591763061318,0.3134746630802947,0.2543653476131047,0.1979441501720518,0.1472784564145464,0.1028027860213343,0.11012459782259731,0.16188358392399405,0.21924885676751793,0.2696206883318417,0.327785031289622,0.3869014998192086,0.4460185998002346,0.5051356997812579,0.5642527997622837,0.6232354524268273,0.6762405484852057,0.7302661284433023,0.7893181282074424,0.8484352281884686,0.9075523281694915,0.9663500945850827,1.0,0.9755600373054332,0.9552487928101911,0.9429036062552183,0.9292000077993694,0.9034065281211099,0.8858879062000373,0.8607416456016377,0.8327781210988816,0.7978936613304779,0.7590550493991739,0.7229103270555433,0.6926373091170688,0.6872851675111951,0.7120642984497876,0.7540802274899643,0.7940354818040329,0.8334356048495872,0.8706886141444279,0.8976060673353086,0.911272797624354,0.91324959522157,0.9132538639089636,0.9132538639089636,No
0.6517454262645721,0.6984097494007928,0.732154815507454,0.7505421242920982,0.730356795551498,0.7239255011855406,0.7188333622975991,0.7186111891313347,0.7386002364295479,0.7585486504527617,0.7717125506524489,0.7966660741931593,0.8141476969176518,0.8241561239341788,0.8464917093984146,0.8513336305202208,0.8505914845149407,0.8298399168250636,0.789191171991964,0.7793992934839284,0.7955688651743253,0.8149932288405028,0.8396363946260514,0.8670672562682782,0.8690863228479739,0.8540453373807679,0.8032917855333439,0.7336352644882083,0.6690242021070674,0.6006785730517064,0.5390882777451593,0.47570674486678755,0.40004329182885767,0.334624932660458,0.2650713714129673,0.18925611953423394,0.12580368967191857,0.06387036652109002,0.06167556598573709,0.11645520513542928,0.19229966478355687,0.2687549828562439,0.3413822716521757,0.40421729750260793,0.4799506681443222,0.5564148589111082,0.6328790496778938,0.7093432404446798,0.7858074312114653,0.8622716219782509,0.9386752181032425,1.0,0.9663880258715727,0.9059743179676572,0.8493492488687524,0.8082484546764448,0.7778627565791201,0.7537711516413039,0.7230105049699689,0.6897135465285094,0.6604090501569075,0.6151956870591544,0.5735429275056863,0.5275089501984667,0.478740356066758,0.42762246997565256,0.36881465192488383,0.3136645065932355,0.26276276601529647,0.21588871506518537,0.1702953000228491,0.13798116514695247,0.12542273012557725,0.16248356497443384,0.20677824062278427,0.26266833509067933,0.31763818137471,0.37798086719952817,0.4359796245837657,0.49331231480241255,0.5504283789758295,0.6034288500297356,0.6594074990763299,0.7151637917081288,0.774344342381831,0.8153361553306269,0.8231867966128927,0.8089286758926857,0.7958341857462781,0.7814070925442409,0.7785368200254128,0.781953810111188,0.8036187522131075,0.8195383052368057,0.8420372029905883,0.8512481390722781,0.8490287423700771,0.8345786574889331,0.833143048398846,0.8326634775550099,0.8150178411012461,0.7837770909967703,0.7789304189970165,0.7919281531213538,0.8110406948165974,0.8362926835460076,0.8692138733409878,0.8868924422549957,0.8861351698338025,0.8504053445332427,0.7887685105322904,0.7225732857483833,0.6555117013955702,0.5931036603249988,0.5199964843681535,0.4435391487315674,0.36723963596976184,0.30107551842636804,0.23228752329545355,0.15598624660055016,0.08829082511997033,0.03965871390973552,0.05388181454681851,0.11292489000136463,0.18579405909293456,0.23570678105775578,0.3052003878179308,0.3816387632913849,0.4561856007309708,0.5183177637848853,0.5928276622254618,0.6692905690906508,0.7457547598574346,0.822218950624221,0.8986828204156061,0.9730500732024714,0.982478426110569,0.9241637462103549,0.8638198452601351,0.8128723430887925,0.7675963579215432,0.7309263751784827,0.7010988442407884,0.6796294350493173,0.649626485911353,0.6100908888209515,0.5682702493460945,0.5299880846971847,0.4872247412835722,0.4415772837067595,0.3913400933524662,0.34038028899176265,0.2893699703857626,0.2323523361375872,0.17573485583118487,0.13316425910916596,0.09506603139912118,0.07042113741584322,0.08669769392997706,0.13592538876377747,0.1998706495374667,0.2572536905757796,0.31485602220787534,0.37666550242529073,0.4382288186086911,0.49602772590192545,0.5530940491369898,0.6063138170094966,0.6660395019616314,0.7130657327998229,0.7574524987632492,0.7771230535643063,0.7678624097079458,0.7488092026479722,0.7301420953586666,0.7242136580011764,0.7354828260264803,0.7545959802409712,0.7732351151491583,0.7880351835391664,0.8028225558885271,0.8179693368560943,0.8322783728898577,0.8331424064480468,0.8331278708138434,0.8282657511177285,0.8005188369754892,0.7728800334355159,0.7538329208078101,0.754274350857894,0.7778548086164698,0.7933663751443536,0.7967276772812979,0.7963901925646786,0.778957924305486,0.729217540644794,0.6590735624878596,0.5962629075414614,0.523966798571244,0.4592176810606383,0.39360908520101345,0.3300606672157662,0.25506328134343015,0.19257694678469228,0.11946977082784604,0.043764037390382704,0.0,0.03539141686562175,0.09630798615346636,0.17045467898830235,0.24691694390268992,0.3233811346694764,0.39984532543626106,0.47616800113049385,0.5432813037353399,0.6111302392599907,0.6874963287970277,0.763960519563812,0.8404247103305988,0.9165272335831287,0.9565602419070269,0.904596745064024,0.8394200606965603,0.7845999024001937,0.7376718341625361,0.7005155295751617,0.6610288753433231,0.6306861314778445,0.6076553881080868,0.5763960557661965,0.542620052212869,0.5085202324524105,0.4663606497798658,0.4256530892415462,0.37972553532527975,0.3293089533461484,0.27696731084417525,0.22871443124494029,0.17806687879496863,0.1404811271575599,0.12500508157580814,0.14621512577631668,0.1844339631564682,0.23177179580097507,0.295619562641102,0.3548544104667002,0.4122657136326513,0.46960832966684096,0.5228992340307475,0.5790127505276446,0.6323091426579905,0.682613773808209,0.7207718005248771,0.7410257464509598,0.730295499819507,No
0.6138497936007707,0.6006704798762554,0.5724300252885139,0.5462516498633645,0.5144282837235046,0.4754896186725952,0.43626232808305354,0.3961573896021131,0.35699448809997425,0.30825075625751475,0.26040588129945985,0.221390797387792,0.22033188062261133,0.20067826778737863,0.1814457060862138,0.13909953809302,0.09821015093554641,0.06007046939431593,0.022313929923816866,0.0,0.015439456358149917,0.057240543449048165,0.1028824308833074,0.1506321841224183,0.19962023795218742,0.24856147461273292,0.29888912736170137,0.3495736350904537,0.40069174089791537,0.4516021223237836,0.49947094839812034,0.551812193712409,0.595766188068936,0.6333030059950013,0.654298094107163,0.6567741792780419,0.666034606390453,0.6534065241553735,0.6344732970836933,0.6253203403528185,0.6140100321709954,0.6110244333619483,0.6190236982153834,0.6284163356147243,0.6400420800963407,0.6478538881610356,0.6576698970310877,0.6694107215557523,0.6706305268472301,0.6677282093222019,0.6463830347461863,0.6257760869682822,0.6003911460540261,0.6100160002558981,0.6409009761654498,0.6667804797977543,0.6794136668120461,0.7127220485368027,0.7203676887327422,0.715389098998618,0.705816663134329,0.670396536145377,0.6108383888400575,0.5549195549710897,0.518248930653207,0.4656915174759948,0.4051636349897112,0.35330281921783224,0.2909095803056141,0.22965443353488868,0.17816720476489212,0.11638353792330247,0.06323221692382641,0.0207349540889763,0.04106406981968069,0.09301467744229575,0.13459847582416917,0.1916311661560004,0.25487683118826543,0.3162421298189695,0.357883282472663,0.4017051471160451,0.439062984440419,0.4965699328977118,0.5598180238412371,0.6230909715505406,0.6863639192598436,0.7496368669691458,0.8129098146784488,0.8761827623877523,0.9394551076438062,0.9999999999999998,0.9992535340365285,0.9492251844161321,0.886749899663912,0.8283923291406017,0.7751267056202018,0.7222462589719914,0.6761096851588564,0.6440525740212839,0.6277672511825709,0.6120047033122142,0.5962251928885791,0.5772354820619217,0.5510565954995112,0.518125777627678,0.4874519088744089,0.4533071439451757,0.4182477961094977,0.38044863041801036,0.3389726413635794,0.2962320840840482,0.24584637885598748,0.20334384358001345,0.1713329347084891,0.13753811421618267,0.09583415066223089,0.05372282577447751,0.019575501838821063,0.016049741581628973,0.044020452102462526,0.08950278318997618,0.1368130446655591,0.18099491816616786,0.23164074016909697,0.2825068456170119,0.3304980034132552,0.3779731676970093,0.428282496384204,0.4762832077599415,0.5174079097790065,0.5701481396814543,0.6025656618424826,0.6308075702963969,0.6403464915040991,0.6316271636200408,0.6335280302994388,0.6262740149919226,0.6231063845758384,0.6022038847075948,0.5959729048313325,0.5959935612727378,0.6024827317886021,0.6181875427609838,0.6338567447542676,0.6406877202715691,0.6407546694527209,0.6412740897841618,0.6518071678312369,0.6463778649604837,0.6183441372145262,0.5962497869702819,0.5825876573504642,0.5989468364184558,0.6381993654637419,0.6569056862403497,0.6738773305351884,0.7048658207180603,0.7085741324308941,0.7132902621539496,0.7080222501397568,0.6721274987490331,0.617698769570125,0.5594823013760644,0.505927418710806,0.4430313312612155,0.38709037592992,0.33123902881829026,0.26831559424915086,0.21457432352933492,0.1564390789265293,0.09779022427726258,0.045764106519009085,0.024095014260990144,0.05841714668193587,0.11779448282016713,0.1810591285258265,0.24433207623512954,0.30760502394443257,0.37082424039590456,0.42787984012462066,0.4826280302054433,0.5457573687947266,0.6090303165040278,0.6723032642133309,0.7355762119226343,0.7988491596319374,0.8621221073412404,0.9253831789142126,0.9798808554947998,0.961779587671552,0.9042851657115543,0.8454778978710402,0.7923983915685759,0.735452544973622,0.6892885087690044,0.6583485949973611,0.6333962806226026,0.6166366505156711,0.6073602377296174,0.5885593707259604,0.564686236083858,0.5394732358073073,0.5085995707595867,0.4725316424363155,0.43742292680034134,0.399510528039009,0.3602504297312292,0.3081312360429733,0.26124372990312206,0.21503977241151362,0.17201611115301563,0.12973558349956238,0.08384498083749037,0.041996642618939095,0.007169902600526079,0.0037604879426365034,0.0312700918433535,0.06923521536595767,0.11277252936734938,0.16365437698572616,0.2146518418840795,0.26541378915864233,0.31569174713688386,0.3646278367490601,0.4136342444092256,0.463922311690274,0.5145894531827946,0.5651193727686115,0.6045250715167614,0.6338684590297572,0.6536442061296663,0.6642307629036346,0.6524485311782582,0.6413745239052779,0.6386468461915136,0.6266421592605,0.6160321444255354,0.6133439508228637,0.6259496378508749,0.642119243269885,0.6557599385727377,0.6673879771651767,0.6798137850410655,0.6859107413828853,0.6950849551735356,0.684026821294504,0.6615962718968251,0.6336408552441732,0.6302629365016721,0.6581265990475698,0.6893285985399336,0.7036328942383625,0.7302395864374207,0.752345763354515,No
0.4677794072697825,0.44496903482594474,0.41119091244877826,0.376869650046312,0.34409039257477514,0.32330088769824106,0.3242359601947751,0.3297093305731744,0.32736928407118326,0.3367654912578948,0.3270627248252911,0.31161608563572196,0.3120112865617082,0.31987618881985624,0.32745290261429005,0.3278253551950798,0.3288473764049935,0.3295151604764093,0.3225252771212652,0.3216789054773246,0.31725269892246666,0.31664813243410284,0.31213993506886983,0.3049611117990585,0.31417411671306295,0.32662606136829875,0.33090945736271027,0.3370369910674911,0.3358144013677604,0.3277539873818762,0.31110466036919093,0.29144367792172887,0.2653374388725773,0.23454848607835355,0.20360557101320653,0.17348809275331223,0.1442909955912277,0.11508837591992149,0.08451172979193866,0.054747516927674544,0.03041556667690437,0.02196506968745293,0.04344640324342208,0.06933946316844786,0.09525145534672652,0.11969293311551765,0.14305896217929392,0.1630974779473624,0.18394441175196463,0.20415517574162112,0.22042209608773566,0.2334105428836637,0.2459083222939611,0.2544746216125777,0.27032444174910153,0.2936472780073489,0.32157299205706114,0.3521446083570252,0.38351614122357036,0.42081507030944176,0.45269374793413175,0.49038952952742476,0.529254166427495,0.565633678701446,0.5982758085461981,0.6369179930377911,0.6757930969366952,0.7146679893188188,0.7527483391299048,0.7846276885842032,0.8223234701774955,0.8611964870687481,0.8989543874901669,0.9270068291551086,0.9312557537025095,0.9002911551648869,0.8670545304814765,0.8283036535263468,0.7900271604196323,0.7581150002099479,0.7206469820942927,0.6818110661888912,0.6467401155537331,0.6129046176469437,0.5741196799418324,0.5354774954502386,0.5028585130525833,0.47027544918893005,0.44478156222512966,0.41452793337148663,0.3783310519266412,0.3466555680782144,0.32330729952804793,0.32173146481077874,0.3218541285147629,0.32736599384211784,0.32369573222528003,0.30549888414105464,0.30175543928300264,0.31407728504302224,0.32454940727209514,0.33052884443146313,0.3307013933434122,0.33070141449509016,0.33070141449509016,0.33070141449509016,0.3307004384781953,0.3295207062269063,0.32201575074758293,0.31851625938912265,0.31383556338243146,0.31526741260062185,0.32292909912238166,0.333847729878995,0.3395601829313877,0.339620963372427,0.33469640642438825,0.31830312232221014,0.29072932216924174,0.26318402348958125,0.2340341355785509,0.20667206725303844,0.17591813495062536,0.14483669483369566,0.11389278259997537,0.08300881158948914,0.052432122939739756,0.023309563631267016,0.0,0.0037665166924087945,0.02747868459742886,0.05339187157355241,0.07855834707972575,0.10228383933921803,0.12810179566062097,0.15186091634766896,0.17650638804219487,0.19490686803411772,0.21223306356682858,0.22891958578661042,0.2463587488277339,0.25883178363848836,0.2712258097789051,0.28870180035246373,0.31064520624497427,0.3393757888874045,0.36931045794230255,0.4022233176302441,0.43661300325247376,0.4754354209078546,0.5132096048712256,0.5449977081211408,0.5830914970532202,0.621965971425873,0.6608184222563755,0.6959705177629447,0.7290430870223767,0.7558035474300713,0.7894673699786232,0.8283032858840249,0.8671784320862863,0.9060535782885459,0.9449126101622798,0.9805999312443436,1.0,0.9845208578081666,0.9481491721244795,0.9155099945217922,0.8791304822478407,0.8403164445836411,0.8059236818988773,0.7721185206603751,0.7453024395289376,0.7116420616852421,0.6743813532269207,0.642410757568239,0.6040234481938529,0.5653209778136101,0.5321997131239344,0.4990672452074809,0.47339125132707105,0.45224916324461395,0.42208896237533233,0.3863208133289513,0.35746455247607867,0.3487498717587878,0.3480469909090109,0.3429788852242013,0.355000176154066,0.34659995538488597,0.3248304432161899,0.3206023297173859,0.32866963048260955,0.3393880228134374,0.3396725597768713,0.3396726020802272,0.33967162606333234,0.3384922614543642,0.33149646470640226,0.3307016048601934,0.3302850344768242,0.3230883379028793,0.3139411206496139,0.3082617790408164,0.31485978021585903,0.32290659411572653,0.3308974016651789,0.33849189381204314,0.33961907479367137,0.3338431529633703,0.31559813360939737,0.2955617450627397,0.2706760547607625,0.24296567903655286,0.21377884542031467,0.18461286493487128,0.1538077978121204,0.12286390673007919,0.09158639896113518,0.05704735705471209,0.028395975047102118,0.0069562965066394256,0.014025975906442056,0.03907824978646057,0.06366223142667948,0.08904343736521603,0.11421605678568802,0.14190397765457274,0.16625571437780629,0.18807990841113442,0.20391837157599801,0.22253325096730148,0.23624219499856225,0.2512027402442871,0.26304344450846306,0.2734949096840371,0.2902351307313218,0.3156439355422451,0.3470608368074968,0.3819793622288252,0.4157407084742384,0.45450085092791803,0.4914217753380923,0.5236989203653097,0.5621581176466606,0.6010332003938861,0.6398181804023535,0.673653678309144,0.7087246289443012,0.7475625976177906,0.7864374899999151,0.8245178398110005,0.8563971892652984,0.8940670694246324,0.926018408894576,No
0.44752999468764587,0.46315642617311004,0.5005073572395018,0.5365331088202137,0.574132294620761,0.5741296380204193,0.5426062016875368,0.5577811200965401,0.5643541467228506,0.572894237133899,0.5944403597111045,0.6034569946822566,0.567673081083302,0.5444415798057518,0.5280289870733701,0.5437823357540232,0.5812574017832752,0.6205187358442321,0.6579800150868838,0.6902305171065417,0.7216237396692415,0.74961007498396,0.7716194116083015,0.7634606045663974,0.7542714548605145,0.7461486539994977,0.7443840202221854,0.7553711096958373,0.7675298366914922,0.7766279178796367,0.78472628531239,0.7701434971423771,0.7562215750031411,0.7639598438545003,0.7725746166172627,0.7997323169827324,0.8231324512331155,0.8285033899470902,0.825763790218788,0.7978512647962974,0.7520517246814422,0.7063153960421744,0.6556091403898716,0.6109785510046779,0.5591030070135385,0.506419729640109,0.45676077125746795,0.41126600549004144,0.35892855681477887,0.3091058409704601,0.2637447518810647,0.2128127635281627,0.16828612636294515,0.11795815527332243,0.07689549460250777,0.065134437413924,0.10207239138829549,0.15394504277730836,0.20664317894536843,0.2593277165221577,0.3090455133477883,0.34740599241136594,0.3824360403966356,0.41876859392668364,0.4698046892586867,0.5218956882789794,0.5610845486238647,0.6061734861658195,0.6455102139337601,0.6909446394865972,0.7424065991543527,0.7868839709006787,0.8383616527946938,0.891058726063285,0.9437505398890067,0.9933351726524109,1.0000000000000002,0.9591771771538307,0.9169987324052109,0.8748395234504343,0.8340150780246343,0.8000423768637943,0.7763767349669561,0.7535370425543431,0.7309649081630629,0.7131803921772517,0.6893308275613956,0.6611074571602209,0.6311577318141326,0.6028685534052187,0.5723995409780345,0.5452356125986351,0.524308228336795,0.5294674381128985,0.5514643076685726,0.5795393376111349,0.6123805593620986,0.6509211961698653,0.6825360150129685,0.7077801869396994,0.7213255408724806,0.720592545420117,0.7125797114616685,0.7119119063593167,0.7164332947782368,0.7306889343272462,0.7420406791998144,0.7533116736689558,0.7603914101388296,0.7494532163018652,0.7351794735536861,0.7334736534379525,0.7453211071680761,0.7709228219380084,0.7931353036631408,0.8041147527193542,0.8051958113717472,0.7763699129282751,0.7330521494784479,0.6889906847362588,0.63742369492035,0.5858835611441249,0.5414260563883282,0.4899329257653695,0.43735666376590476,0.39060103140872515,0.342507049417099,0.29568917298077957,0.24770116703836398,0.20076774115052198,0.15282771339778356,0.10479096725708348,0.08246718126631136,0.10879972742992727,0.1577167691416177,0.20272460975664774,0.25493298702671807,0.3076313860801183,0.3603299274473857,0.4130221305531854,0.4635644158302814,0.5084225310989219,0.5605180727671293,0.6132163769446168,0.6659149183118855,0.7186134596791542,0.7713119501494481,0.8237045601750279,0.8693639669071118,0.9188119225643727,0.9666571171983696,0.9547992564156262,0.9112650013645507,0.8691095777237068,0.829324879411176,0.7973605551532019,0.7725033644676893,0.7520987810419688,0.7296605470416051,0.7084979024550928,0.6853437438417893,0.6626640149104241,0.63059607646837,0.5970924992803204,0.5683855767096637,0.5416907487331588,0.5229164750484927,0.5264131011624789,0.5497898917447661,0.5803447785228084,0.6133360897747888,0.646971403969036,0.682093609431272,0.7161332035456454,0.7361398275807507,0.7428373001371673,0.7351734959045069,0.733093791643743,0.7331835271571061,0.7385409544066988,0.747007016548255,0.7548109373933625,0.7625757221517921,0.7517968373714916,0.7313759663271069,0.7227066002476104,0.7281725591725052,0.7482592435511692,0.7707031014269934,0.7708514813129008,0.7745223026802499,0.766433307988724,0.7326167328882907,0.6838120631591569,0.6393589654364329,0.588133181682474,0.5354371564578038,0.48273861509053506,0.43005837502377453,0.3807475409050376,0.3349728854976939,0.28262455583378765,0.23506035269340453,0.18766623178864328,0.1353006892058617,0.0893722507257213,0.04048472412170012,0.0,0.003354216153290679,0.05002773893191126,0.09559290675400489,0.14514264968130353,0.19782542774579293,0.25052396911306163,0.30322201903865365,0.35519786817554566,0.39987390982716287,0.4507152734824864,0.5034104186102941,0.5561089599775628,0.6088075013448286,0.6615060427120973,0.714204584079366,0.7669016648088303,0.8183038938934506,0.8627202455974383,0.9143214805024211,0.9533461090896058,0.9271153826127918,0.8755031716667645,0.8307581728020119,0.7935070258430184,0.7617154253007485,0.7355522575702538,0.7173219629699346,0.6964393555377213,0.6772009533183947,0.6573280234860495,0.6313247802475959,0.6010989540912075,0.5667839309585303,0.5379630106311089,0.513687827436814,0.5107606690443576,0.5251362216936724,0.5529734481574529,0.5844282667788958,0.6194971161191509,0.6546262683422848,0.6886230255365489,0.7160957676500526,0.7320899747768947,0.729657301240249,0.7312063944103369,0.7330839205503255,No
0.5831506916768476,0.5984575032702686,0.6119374854315813,0.6179177302293148,0.6101743442947432,0.6039323818237785,0.5983827257106034,0.5980854486820137,0.6053285246566036,0.6173732456567784,0.6252868205752438,0.636577144101441,0.6455423520687877,0.6525559410473489,0.6536046653705452,0.6582570826324761,0.6635299776688752,0.6634924177218509,0.6567420210343462,0.6488003783466221,0.6466113046919293,0.6523038626146069,0.6661847893652861,0.6777636379201482,0.6873579230149878,0.6832805148534897,0.665583103053907,0.6330367230616643,0.6042417328569096,0.5722718614292877,0.5405717929239577,0.5115371413373808,0.47799562334838286,0.44566345904416893,0.4171173769614306,0.3837120835220845,0.34995284471479715,0.3161934162827208,0.2824374722345625,0.25003591051527496,0.2215297066509313,0.18815438691486241,0.15439518001679353,0.12063575158471718,0.08687928727272298,0.05442091358371781,0.025994806783549707,0.0,0.008050155596331265,0.03489328200835573,0.06752793978782223,0.10128583528828305,0.1350452637203594,0.16880469215243588,0.20256412058451223,0.2363235490165887,0.27008297744866494,0.3038424058807415,0.3376018343128181,0.37136126274489445,0.4051206911769708,0.43888011960904716,0.4726395480411234,0.5063989764731998,0.5401580238251764,0.5733834750448603,0.6018032521932613,0.6344393172386664,0.6681972127391274,0.7019566411712037,0.7357160696032803,0.7694754980353566,0.803234926467433,0.8369943548995094,0.8707537833315855,0.9045132117636618,0.9382726401957386,0.9719842345255074,1.0,0.9903048347089107,0.9592573647435843,0.936077310761259,0.9082031834564668,0.8769119288814538,0.8433941585507636,0.8145434846962336,0.7826811592561078,0.7522002192041268,0.7221736254602225,0.6944361720533985,0.6761836163031212,0.6554751286152065,0.6433895845680284,0.6361241439900407,0.6263944407893502,0.6157302783771308,0.6025191685351365,0.5880577618311207,0.5707926686349032,0.5526550692025423,0.5282271628450341,0.5054903146375043,0.48007578612624924,0.46221839707390866,0.44451335981637197,0.43692983324478696,0.4470071993009629,0.4671994997920348,0.48851963012463306,0.5126174648241122,0.533298046828546,0.5553876794627672,0.5743762657281279,0.5939476693237398,0.613771189977335,0.6225514399814578,0.6284337412663044,0.6212927179183099,0.6141516108388294,0.6039079841210007,0.5965346504819016,0.59488240055407,0.6021826612590675,0.6129577700026301,0.6231318347670238,0.6337159230455991,0.6391772181683555,0.6431921500564308,0.6463804683970988,0.6464182643969707,0.6464182643969707,0.6463757226485478,0.6430246959307506,0.6391193864255662,0.6321953258991653,0.621599984257188,0.615500955797182,0.6225666399873222,0.6367010304132927,0.6487153701900648,0.6590838208598697,0.6601452418206517,0.6485555580346372,0.6217563205200476,0.5929202038517571,0.5615511384876384,0.5284844844594179,0.5002000852590687,0.4672861231659102,0.43352801510152295,0.3998814042722213,0.37029383251357484,0.33922804369119464,0.3054892072676726,0.2717297788355957,0.23809969355146365,0.20864984692975763,0.17743192983612444,0.14369097100174522,0.1099315425696692,0.0761721141375924,0.04241978727208351,0.011668167723946743,0.008388790970129678,0.03230985776185835,0.06546839382314584,0.09922733355461988,0.1329867619866959,0.1667461782334858,0.20039341419996626,0.22990615004208104,0.26104675570048996,0.29478499825262316,0.32854442668469985,0.3623038551167759,0.39606328354885256,0.4298227119809287,0.4635821404130054,0.49734156884508196,0.5311009972771581,0.5648604257092347,0.5986198541413106,0.6323007596648178,0.6621983949219894,0.6929322837944065,0.726658661975162,0.760418090407238,0.7941775188393148,0.8279369472713907,0.8616963757034675,0.8954558041355443,0.9292150653746041,0.9624523242267184,0.9733319844461648,0.9440237677734713,0.9102831023210172,0.8782283584370023,0.8494795416345893,0.8159991951790968,0.7834078857385722,0.7549804597972203,0.7235740119956913,0.6963677173114444,0.6705497132989009,0.6433045989576494,0.6279366257262196,0.6189764416652075,0.6144822175549105,0.6021385027018438,0.5906758333600521,0.5773318418610731,0.560486382450647,0.5428241838496144,0.5201515633485825,0.5007155568026056,0.47834422605468596,0.4601311862857729,0.438228561448325,0.4233723221733843,0.4202368291091827,0.4312118057670369,0.44870348749540256,0.47096591391888887,0.49235808311359897,0.5161282445564521,0.5386542537218677,0.5593562096950355,0.5738360922996251,0.5868557391344802,0.5950956740640978,0.5917720579221852,0.5860535243983156,0.5776886324335511,0.5711640631556554,0.5762653473155321,0.5863145047578566,0.5956377855242316,0.6050501598357934,0.6141426422311453,0.6185865176664247,0.6231711421456372,0.6203161035745464,0.6252658297842981,0.6312771604439065,0.6263810526751425,0.6268723241026832,0.6320422264541063,0.6323961065540271,0.6289492452867909,0.6162279116105667,0.6141732866049003,0.6161033990487235,0.628822361346993,0.6455935406080973,0.6589522757747079,No
0.5494552542124009,0.5593277002087329,0.5595840755264905,0.5595839376179215,0.5589574311829169,0.5447053122978671,0.5160029171747191,0.49709000083735644,0.503235124621618,0.5253176126626018,0.5298457204304134,0.5484494380655893,0.5722113126369979,0.5684326391153669,0.5246076900391787,0.4687724404567395,0.40799234875273704,0.35280130199422954,0.2899759389163705,0.2338263669256322,0.16701229740812407,0.10904226409029905,0.05130910597783345,0.006138308751094446,0.0,0.04614442391697526,0.11184850171411531,0.17918188517900147,0.23637045305929583,0.29899928072970683,0.3666393621633448,0.4343021657537083,0.5019649693440713,0.5695865531692315,0.6315265322272734,0.6893104782218145,0.7567577141140336,0.8244205177043971,0.8920832602967397,0.9589723028649124,0.9796416230606937,0.929491708267054,0.8673918280233459,0.8116934281583088,0.7486313442427921,0.6934849656245388,0.6366695575882755,0.5866883781048329,0.5460454545370674,0.5120306824907681,0.4818555213797455,0.45924492158906016,0.43995081654776813,0.4119491948931562,0.3748583495436755,0.3397558305973769,0.2991506357885001,0.2568740919603316,0.21497963445038915,0.17193221176492912,0.12681746800568572,0.08174973559018861,0.04105944938855499,0.02160698849910725,0.03665042624173376,0.07658745182315307,0.12530243487933967,0.17500623656225223,0.22911909522013785,0.29014504958431075,0.34095040005898136,0.3772009028254941,0.41728819599520195,0.46230915408372875,0.5039812359755609,0.5319249462281697,0.5466812304521711,0.5588697672855281,0.5558968259021531,0.5437609644533552,0.5313981538837123,0.524776825371402,0.5128557220659622,0.5123177312210023,0.5239968035752933,0.538504883867692,0.534017956652872,0.5496385825671202,0.5594050775789996,0.5595840755264905,0.5595838739678123,0.5588376189164368,0.5457135881179891,0.5266981913252331,0.5129690255077191,0.5261127191883817,0.5542313872963036,0.5621701717677534,0.5868269680102474,0.6054736231030251,0.5903213478627563,0.5514145110639723,0.49457455908687464,0.43693810691941515,0.3815255271839799,0.3148344983818183,0.24717251099959991,0.1805847497990114,0.1252113765803302,0.06467898092575997,0.023140337279750067,0.0157227331072054,0.05509934719887877,0.11508963709954845,0.1826794478973417,0.24839511959278626,0.30365227773355974,0.36981199400745,0.4374738596720058,0.5051366632623702,0.5727994668527332,0.6404512546369254,0.7041444176415221,0.7604715003375029,0.8275923070978597,0.8952550152130594,0.9626535894619352,1.0,0.9490550779763538,0.8939699302322279,0.8288809495778873,0.7735789675161358,0.7129829858707315,0.6560230799668774,0.5958144406295935,0.5527565965716885,0.5206098692584162,0.501344960347538,0.47870311878162664,0.4515852988219282,0.424170601594013,0.39067545620660127,0.35501380712089103,0.3196456117838693,0.2760716506737344,0.23403396793113895,0.17774701248161584,0.1348814122464943,0.09016959100174615,0.0475875801557093,0.015014822825647478,0.011513009790196982,0.04328304272212069,0.09335901696539128,0.14416887329510208,0.19497890996678668,0.24574406591063802,0.2992156575163083,0.35108247714579743,0.3985041781179457,0.44678032404173385,0.48848372329686285,0.53118934861511,0.558674381917525,0.5735220535085324,0.5686936169198002,0.5726641147173077,0.5657291353601521,0.5511588904490554,0.529984604377395,0.5278700725066208,0.5296758680930513,0.5429614618999117,0.556790678700386,0.5701862537166842,0.5753358298579778,0.568022578604952,0.5659229192670581,0.575213813099646,0.5682844256986885,0.5424413162938837,0.5090420254462278,0.5040016681476764,0.5225075559650727,0.5451462957002429,0.5603754323779282,0.5845955387797734,0.5911447334749766,0.5761899074275032,0.5271440051838807,0.4628386481031095,0.3957266997332023,0.33939961703721977,0.27571344073283655,0.2115459166646687,0.15566450513541774,0.09751802965287171,0.05681690813902218,0.06377988071936391,0.11429518364812985,0.17496815595397752,0.23358566625869193,0.3010910211851803,0.3687538247755433,0.4363273925668816,0.49618991693663306,0.5559873414099741,0.6235465695455065,0.6912093731358695,0.7588669140286579,0.823884015335155,0.8793074690239795,0.9457763098764289,0.9843906858773419,0.9341391424565288,0.8790667108934991,0.8127911382014479,0.746739369095974,0.6916729187286847,0.6350830950672002,0.587567909057626,0.5504593778653395,0.5229663633529036,0.4987415159881339,0.4815391766280217,0.46211520614784707,0.437893965499105,0.404388660007863,0.361615966564933,0.319912567309804,0.271640026110886,0.22620335752238097,0.1810937465065634,0.13612515649566603,0.0971513487696809,0.07109647518672935,0.07606260661526187,0.11277217576243315,0.16081213196918176,0.21149263499616655,0.26217599569438343,0.31198436849353417,0.3597462191813743,0.41197348829493974,0.4630642577345814,0.5038356683606646,0.546475486877295,0.5737967338208372,0.5901075912231137,0.5910801196009876,0.5779110199568245,0.5604072411587726,0.557437289851789,0.544948488582313,0.5437264631503957,No
0.22321281116434144,0.23181883588670082,0.26586017023829256,0.29923712704682437,0.3336244192291804,0.3693309087723733,0.3714989621074998,0.33678115714026724,0.30214083535417724,0.2642633954720206,0.2299107626718171,0.22308995004231713,0.2260447514404067,0.21161809877108428,0.18273967744017372,0.16418152472238212,0.17129589625986763,0.19732158708744807,0.2298238067441596,0.26309260344608454,0.29911568762982466,0.33450320516311804,0.37643226279476893,0.41300797421839586,0.44604841913433324,0.47879002061894127,0.5101081452058964,0.5325423399752296,0.5516165249977079,0.5566585380710731,0.5547961362776344,0.5453082794824617,0.5370396081743982,0.532859861590826,0.5329803756282143,0.5398670486572252,0.544911288608197,0.5526932240134348,0.5647132585843169,0.5685875276370416,0.5690025941815668,0.577447351658825,0.5805151620806468,0.5805239476848145,0.5805117245211857,0.5764602615212047,0.5594521267118999,0.5577617566162454,0.5739760887084322,0.5861876408591518,0.5843888543813409,0.5994633881623948,0.6179572658318029,0.6216386159922771,0.6038137200226168,0.5588294223359163,0.5168785799241933,0.47245818719452926,0.42841903176292284,0.38605108008750166,0.3371043905127893,0.2913430010216649,0.25050627229942357,0.2017380645801301,0.15326448249855718,0.11334979658283739,0.0673256874206114,0.03690515490009583,0.04519597298883493,0.08602847616920895,0.12759150465044988,0.17649035949015146,0.22553532156344325,0.2691980223254411,0.3119315934422353,0.3609389512193586,0.4100317322879683,0.45912451335657845,0.5080378232578475,0.5497584003899818,0.5944991877501371,0.6435731050857867,0.6926658861543968,0.741758667223007,0.790848854278813,0.8381877589291036,0.8780081467201986,0.9246940179584549,0.927548303698781,0.8806396095263382,0.8358991814755963,0.7941839523881686,0.7478118567819245,0.7086413853014677,0.6706928358215243,0.63588613668718,0.6043130818501945,0.5793237421072139,0.5610909587440469,0.5447641010718174,0.5310464362601557,0.5152300161333907,0.49548101131633016,0.47524919539856003,0.44957596379040843,0.4201894168045961,0.3909401493358102,0.3583793315622452,0.32567182125314,0.29293080620429324,0.26099804861244813,0.23134948962490798,0.2001137272475626,0.18117400575418752,0.18400533014097475,0.2040257335724014,0.23320038603301962,0.2648538703922756,0.30162516330170375,0.3400830355979092,0.3805883801693588,0.4149716806546122,0.45024495258691055,0.4829977558461198,0.5136643384866764,0.538492955448409,0.5568459623685147,0.5671876186858502,0.560749976017016,0.5649489814383082,0.5541773683075399,0.5433554279645367,0.5339425548058705,0.5412820981004605,0.544762342681655,0.5483507467036468,0.556389685408583,0.557378531379368,0.5709513983708314,0.5766354821653894,0.5697508024007725,0.5790118832980826,0.5805228588684082,0.58047180417259,0.5748029288235821,0.5602341384331573,0.556877614804121,0.5663518662417211,0.5732059229382207,0.574964693329131,0.5921149735480395,0.6030553085377877,0.6005919846585539,0.5725023921453167,0.5272156016641012,0.4843321189333323,0.4408312618071575,0.3917973143008564,0.3433923605698366,0.3035009579268839,0.2564379765487095,0.20734941941415008,0.15949323117161995,0.11979053365955772,0.07244824715590692,0.03242243223159913,0.0,0.009416714970161388,0.05033265797214237,0.09921994457238381,0.14174973988362805,0.1856541871423829,0.23470037132864596,0.28379315239725633,0.33288593346586715,0.3819678738886525,0.4279354566397118,0.468602756561322,0.5173345251950732,0.5664273062636833,0.6155200873322944,0.6646125526441464,0.7128449016004992,0.7524566451709962,0.7999698549832202,0.8490614601301116,0.8981542411987218,0.9472468153922153,0.9949904998832317,1.0,0.9535579729787846,0.9044850339262198,0.8597442465660654,0.8180647196864017,0.7741724755747073,0.7321177974181596,0.6916892641632879,0.6548693650274866,0.6212930330991151,0.591553370239049,0.5663118374448257,0.5463156771213764,0.5323186667782149,0.5159748770747055,0.4974946619116458,0.473666326059621,0.45148252477078277,0.42423019647560123,0.395489513223263,0.3685310329199023,0.3347428297824837,0.3047234594334334,0.2718750646870043,0.23579260827763848,0.20277575732308173,0.17316804265298802,0.14570340198534315,0.14050759725616713,0.1571002554315719,0.18728247634241546,0.2210639503189884,0.2566702365498401,0.29378012193881275,0.3374576252999042,0.37446384063318305,0.41107100077074277,0.44495961038454035,0.4785632444240526,0.5035162441723666,0.5268164960068906,0.542157872848603,0.5454585602644122,0.554205733016075,0.5456299049695519,0.53366123405302,0.532834111484308,0.5328338175038787,0.5329584335995436,0.5395474634438575,0.5489152934095118,0.5564849563654373,0.5568912668046937,0.5647100555744453,0.5642166157548059,0.5569500568143471,0.5625826474401507,0.5609084114207836,0.5629231066473439,0.5496010108446541,0.5340142068706668,0.5328759427932896,0.5392159951345492,0.560877385046052,0.5760069407864576,0.5972536886758633,No
0.25413621207580794,0.22405199957341693,0.2083458181374831,0.23122819259998773,0.263123344215376,0.29716978689317997,0.3351100107712899,0.35327355813967665,0.3758986647498097,0.42129439100212585,0.46250109257637173,0.503027940833028,0.5379891407577435,0.5538561570769835,0.5592953985526661,0.572860435669091,0.6107946778032209,0.6489858491701712,0.6846663625932929,0.709498186442568,0.7145291123889324,0.7145204258061524,0.7096338830316353,0.6966650518407249,0.6831804517489111,0.6835886149119486,0.6820573460588601,0.687411671258374,0.6841051407399497,0.6982585060917896,0.706262872207144,0.7136511997392525,0.7055451739344312,0.7032078633152257,0.7032009354817395,0.7032005340611311,0.7023668949354309,0.6930387315196305,0.6780806595022504,0.6567920784147887,0.6521509033952992,0.6708986712955809,0.6997866596034121,0.7177917109016014,0.729317839286028,0.74396706666063,0.7369578060655524,0.7184701617174682,0.6763027098097019,0.633962709176997,0.592379682409554,0.5498460892372083,0.5030336716455932,0.45224864548384147,0.407180615460903,0.36164153814260813,0.3108062580964519,0.2599815288085492,0.21474650512173254,0.16938051060584725,0.11858047258071824,0.07200013149870466,0.029576395668357458,0.0025380710597404654,0.02138368665949364,0.07058701495986441,0.12148952065860641,0.17239260008586,0.2230643860169912,0.26673046656064936,0.31376917801574544,0.3646486329640961,0.41555172185881717,0.46645481075353734,0.5173578295890009,0.5679292788252968,0.6109299488158932,0.6587212602133456,0.709613923059027,0.7605170119537479,0.8114133367955736,0.8599968041585226,0.9024277734376276,0.9527708271354358,1.0,0.9917232030142991,0.9505142241835252,0.9052017151983223,0.8629520322277675,0.821328730074546,0.7787453142675718,0.7383494241089223,0.7040339413234755,0.6754156026562215,0.6501668991845762,0.632710223066133,0.6192215794621856,0.5994403240539221,0.5727729101940984,0.5493057592654293,0.5169145048511219,0.48787292226622947,0.4552861726628543,0.4187475830498777,0.3805661518022545,0.34272215693562824,0.3070881177463838,0.2705549608597837,0.23782334262162785,0.2125544198872349,0.20492956095427117,0.22669516679577684,0.2645110546815972,0.3103022633492649,0.35273732766107635,0.3956858855001202,0.4339714667179142,0.47247132525089697,0.5132921331082425,0.554100740175421,0.591793190316245,0.6256831103260356,0.6537159531558645,0.6787582424524008,0.6913962453627707,0.6917976746229568,0.6865782986894211,0.6766393881010702,0.6693337553784631,0.6652699717661514,0.6597840661074796,0.6693974831199017,0.6826310418757155,0.6915909305945771,0.6918873915322301,0.6964195001534068,0.7030560162877821,0.7032754164982928,0.7088766416363081,0.7167732856464897,0.7253437965058454,0.7258758248742028,0.7189890701492785,0.6999692723437372,0.6786617766452521,0.6715064159626993,0.6871287862100752,0.7175012247231911,0.7340043053648839,0.7467218156280093,0.7581874641604065,0.7593248255285361,0.7376124016138934,0.6956898611595688,0.6524028131070003,0.6091138418036108,0.5666908978726157,0.5184174855471277,0.4682072205992873,0.42602540993369264,0.3770704717346325,0.3261709650154776,0.27591526815565093,0.2336622693147674,0.18481346564030976,0.1339325395808888,0.0865645656510119,0.043540386816051546,0.003533309307173216,0.0,0.03361030058914927,0.08341290680072855,0.13431538220357608,0.1847254559417979,0.22733712059604172,0.2756738640596057,0.32657151922395045,0.3774746081186715,0.4283776970133921,0.47927746124765447,0.5282323994467155,0.5704142101123089,0.6206340233831102,0.6715368093188814,0.7224398982136022,0.7733408563767004,0.8224552764591597,0.8645706090617078,0.9146962245833201,0.9649450203494978,0.9797221247533225,0.9377352346829118,0.8943590307505898,0.8496623902480516,0.8050942677503268,0.763294198465245,0.7210829870778948,0.6857398968703321,0.6512435267579184,0.627500795578956,0.6182873624092253,0.6006023099310271,0.5769090846056746,0.5553405987491862,0.5301326508292599,0.49932620802432814,0.46414786900684124,0.43043458339464946,0.3975147339900478,0.3608364025505062,0.3193688969602626,0.2806601725824347,0.24616468615751086,0.20922824846854726,0.17938707216965888,0.15397101136587765,0.1380893606855209,0.15957553092573673,0.19717033527627592,0.23534723069540608,0.27451432523749686,0.3198370630862166,0.3607204768115535,0.4013172835288774,0.4418928421081967,0.4814916275968941,0.5209888294582632,0.556609170683805,0.5956144978465416,0.6303709583052086,0.6542277449698439,0.6487744235929975,0.6449461393170997,0.6359998836687843,0.6295568307509973,0.6196170942956967,0.6145298408664703,0.6261932954419476,0.6477651939483031,0.6701120152503022,0.6923056891592052,0.7090346552891165,0.7330956248061649,0.7630235203022471,0.7829424499423769,0.796078333190799,0.8166436446931038,0.8241551097555386,0.8165378603798037,0.802623606890057,0.8061799178744966,0.8254939600763396,0.8234214334291527,0.8134296834121804,0.8056932565428814,No
0.6770737606645619,0.6417468065348725,0.6009629874213914,0.5584036525500186,0.5173080605195942,0.470475416928012,0.4213137471899594,0.37750601633798186,0.3329372840892183,0.28725781812081463,0.2465926246677449,0.21302750150762362,0.17035870748985127,0.12649628231863452,0.08241211319664898,0.04147864830328041,0.003459410658441575,0.0057904524106418,0.04425195086993783,0.08394038074889976,0.13090034726906297,0.17280754101751838,0.21367018900957968,0.2545188872923162,0.2953997691763791,0.33774457957467485,0.37703465469048714,0.4152928927886893,0.4518851824539599,0.4886046345806422,0.5269859824703124,0.5616487341137756,0.5916549566777788,0.6177163670428331,0.6431657214470917,0.6656383471442483,0.6863243630298742,0.713253731821272,0.7475314278794932,0.7895571964651925,0.8347215219603142,0.8800374352068178,0.9209220760244768,0.9297601213637562,0.8872728844389316,0.8413905788467214,0.7945454846007828,0.7435300289545123,0.6924656982664882,0.6414013675784648,0.5903370368904407,0.5392733263909762,0.48895969779167736,0.4451060084994528,0.3957408566667694,0.36386924056220804,0.4002453655955399,0.4477215803447808,0.49298742819297947,0.5438297897244239,0.5912420669792638,0.6366452145364007,0.6866192521669673,0.7301679821809063,0.7719979800748543,0.7941691038390671,0.795267972553671,0.7867358517804773,0.7699572497445585,0.7460619549290918,0.7478088512755382,0.7561235880221887,0.7668833803351699,0.7619386189250027,0.7580702852321027,0.7575771997231028,0.7506828656237815,0.7429892593945789,0.7298567021984824,0.7183810708571247,0.7107985759756245,0.7131994543820578,0.7178153356168387,0.7274386493517487,0.7381675905070478,0.7357182000440076,0.717919450551105,0.6888193211969292,0.6551028726354468,0.6146135101457454,0.5737636524223103,0.532100287840935,0.48809964032272213,0.44255331509994134,0.39918212994464597,0.3556924318624649,0.311467207221502,0.26573337868040847,0.22160880609304046,0.17274548363376374,0.12282870948137103,0.07976017074746033,0.03731046067589927,0.0,0.007645261999030706,0.04499842064477655,0.08524423841470041,0.12612686920861604,0.16858730238091824,0.2097425459679808,0.25445439194485686,0.2988754526368854,0.3397528475471795,0.3798212537055451,0.4181675512206763,0.455740689346667,0.49016769998245613,0.5241806974233881,0.5563538928084238,0.5885519240479359,0.6157076121866528,0.6373343365484326,0.657303161000352,0.6818027876073179,0.7123113436836607,0.7510491767262438,0.7945251550233926,0.8380315574840714,0.8847164986575334,0.9265194338072359,0.9432916916769115,0.908824230042299,0.8641749763129044,0.8161859954037097,0.7651427829518559,0.714078452263832,0.663014121575808,0.6119511097744935,0.5619175378864435,0.5181660275983052,0.4682740827119206,0.4184202772872959,0.40788542040524123,0.4547308630907344,0.5057882264463646,0.555742156960067,0.5994761522703668,0.6485464931916566,0.6922339017231863,0.737498824905419,0.7750730463010275,0.7863305156113111,0.782947620923729,0.7739008364013019,0.753437272969599,0.7398097320230222,0.744883014048474,0.755734574110872,0.7524120152678703,0.7477822792892609,0.7400715135716879,0.7311225413100474,0.7216602017673855,0.7141457141893063,0.7003621762141411,0.6868968673816941,0.6828426880050437,0.6928320140835001,0.7125277229891643,0.726432724141724,0.729110795146715,0.7179671983428383,0.6922830256069125,0.65949059709651,0.6201677792485202,0.5757101628274875,0.5328924367985716,0.4913351971137302,0.44868535298270784,0.40454335228498584,0.3591856419916345,0.31581980178351177,0.2721450965766371,0.22661741962808468,0.19247705716924146,0.15549418541594962,0.11294250107750103,0.07051445545938895,0.045176423711180136,0.07328441707632438,0.11155837923972534,0.1501074275188462,0.19088022709911068,0.2332181384631581,0.27247319905735756,0.31326982113806656,0.35321071789560576,0.390873284230672,0.41991051181576877,0.45413515333308385,0.49366202158658645,0.5282409457666027,0.5615890942464375,0.5891472224230069,0.614693216618683,0.6399156928024495,0.6613499217442785,0.6826505817908229,0.7127134926884843,0.7513545812592167,0.7950220516852528,0.8419154302014363,0.8856243742750111,0.9323187698244585,0.9765462203707426,0.9999999999999999,0.9663209164696197,0.9226286164994272,0.8733138393956871,0.822254205431883,0.7711898747438598,0.7201255440558348,0.6690625322545213,0.6190289603664704,0.5752774500783332,0.525385180126651,0.4743224610290534,0.42326558305646145,0.37786484529907793,0.392094445586611,0.4356692074559184,0.4841905121763185,0.5348619802251208,0.5792279844031764,0.6278352628114666,0.6754246237543798,0.7133001403531173,0.7463365496410038,0.7819771779732944,0.7946381780141024,0.7877218656111163,0.7770475059585858,0.7550165986295087,0.7496051369193261,0.7551548654072665,0.7594260307709592,0.7672033150530085,0.7612154944151043,0.7580518494601926,0.7566239889336862,0.7474891199482471,0.7384024193419664,0.7289495104120641,0.7197414942665482,0.7116840536787085,No
0.06917542041986546,0.04849310183177713,0.035069498430284285,0.0483791262858867,0.07591496957350952,0.10514092564635735,0.13287441274271272,0.13520518698401462,0.137536306074305,0.16116598848646124,0.16199199668901965,0.14472564195055315,0.16580523323192453,0.1994410091500708,0.23141841729702783,0.25697411088188626,0.27856036387849736,0.30183462495572166,0.3176446381249626,0.32217912373202384,0.3159940454786664,0.30674514380716966,0.30726726887848776,0.3082683108610337,0.3124106929663918,0.31910515600219236,0.31989182410912387,0.32096087044606547,0.320760185670811,0.3259862143366853,0.3226925813128386,0.3079770272537282,0.30066634949925153,0.31712410338830954,0.32734230763999694,0.32781709443340146,0.31649440957045816,0.29304331432663167,0.2577657323635899,0.22241346368750137,0.18832578406073297,0.16889457597286672,0.1878998212092945,0.22655596995605698,0.2658252057320537,0.3004461389023315,0.3394946464704519,0.37947636923944994,0.41945981872851,0.45944326821756987,0.4994267177066297,0.5392975510425458,0.5752470746082764,0.6123981511214877,0.6523482875887919,0.6923317370778522,0.7323151865669123,0.7722986360559724,0.8122820855450322,0.8522655350340923,0.8921246062286948,0.9178540209167126,0.8946110437978475,0.8568693922909402,0.8169019063938369,0.7769184569047768,0.7369776132833213,0.7000923943228486,0.663896327659998,0.623996887022615,0.5842984300526931,0.54916816932086,0.5110498661292925,0.4717713884895186,0.4371184342685016,0.39900815156832603,0.3647376130794594,0.33112736401825626,0.3019567363104868,0.2777876546624515,0.2578140720906238,0.2475461653609735,0.23331340856168048,0.21366467883636464,0.1858576854252435,0.15907331541893466,0.13333771393643157,0.1040065371197012,0.0754894323632258,0.047131875431083214,0.020152899960001913,0.0,0.0071570445970730034,0.031318577262730796,0.059190642262381576,0.09084539129442659,0.11950711048429496,0.14563773755770304,0.180382681238744,0.21083003284164625,0.2419084844904954,0.27105012106625137,0.29392919260723727,0.3140041212814694,0.3258872905103768,0.3235499526256601,0.3160343117074177,0.31263527072930686,0.31481719448197587,0.32236870569181686,0.32533648757736044,0.32582207474870184,0.3293030137704148,0.3295803005791146,0.32884731320381755,0.3279522547038315,0.3210130073166454,0.3226435782027327,0.32034287479591617,0.31115549103229545,0.29294168885474814,0.2928499168254458,0.3149258677540042,0.3229351982051102,0.3231666051295591,0.31840182567827513,0.29535722048633073,0.26096908133512364,0.22325244739622485,0.1885413016412706,0.15761920668584228,0.1542368421301764,0.18250666126300807,0.22078718782176032,0.2607634727853426,0.30074692227440225,0.34073037176346255,0.3807138212525222,0.4206972707415827,0.4606807202306432,0.5006641697197026,0.5406336633084393,0.578557004531259,0.6138326704494695,0.6535857396018651,0.6935691890909247,0.733552638579985,0.7735360880690455,0.8135195375581051,0.8534764228433848,0.89073041656659,0.9265836323107121,0.9664257403373805,0.9999999999999999,0.9835336515152245,0.9439744786695915,0.9039915652698917,0.8646867908658579,0.8300284284131473,0.7910511848455285,0.7510694592983688,0.7110877605966505,0.6720452554493977,0.6374229033964275,0.5983439249474863,0.5655615303937275,0.5324580158147004,0.49770196283480816,0.45947844094468737,0.42421913570456804,0.3870219763984041,0.35299580374228745,0.32119746585662334,0.29469170685288815,0.2719470931302338,0.25543714887751057,0.2442541538549564,0.23054333496365975,0.2111252500236961,0.18800364359976263,0.15871935496464606,0.1316155837370927,0.10495905597930322,0.07835425304875043,0.05639089240587136,0.050267504047776024,0.06660255916294933,0.09227825586139904,0.12233960632375473,0.15769994313063174,0.18884814404952632,0.2202246104818023,0.25029323850910334,0.27965599220485526,0.30497974784915527,0.3241845236339861,0.33836210116051524,0.3364313771145325,0.32574463127931474,0.3239968914555077,0.32236033649652895,0.3261356780817105,0.33449366343722675,0.33528685755464094,0.34155524652514113,0.33598385116389895,0.33786856361136064,0.34057734044026733,0.34034557733071036,0.3333972040334402,0.3169983523329586,0.30183238555337544,0.314558583992952,0.33333028302062073,0.34202480463863305,0.3377028021333265,0.33244227665727377,0.3082513451716081,0.2694900697139845,0.2348305827167162,0.21165948004356572,0.2264679371469237,0.259970022838658,0.2991529527249924,0.3391344782638178,0.3783735867498682,0.4129845877412951,0.4520751122554908,0.49205700349544224,0.5320404529845025,0.5719468834523583,0.6082689496440518,0.6450256707873686,0.6849620228666641,0.7249454723557246,0.7649289218447833,0.8049121941965457,0.8439227238596857,0.8535841996771839,0.8230644518388878,0.7919331920824647,0.7615180655350618,0.7325248996193435,0.6931289515339892,0.6531483137050719,0.6143068896568932,0.5796283999856641,0.5402075815630846,0.500845324021106,0.46617361761886145,0.4272670941177762,0.3875850517628793,0.3530440417335111,0.32322295557905123,0.3003693583999011,No
0.6116707570098754,0.6118638007380439,0.6195462954367819,0.6240162570138543,0.6238385718353134,0.615797552721705,0.6029893999601237,0.5873422377659114,0.5750051774214495,0.5746240357646193,0.5803114653992716,0.5969786408015563,0.6182117030018484,0.6391133424677098,0.6479961963205021,0.6307916773418478,0.589647739148965,0.5387975100397513,0.4951410935353213,0.44836878516984235,0.3971028876035889,0.3458075942663006,0.2961056056537832,0.2546417828371381,0.20427991379666155,0.153033189156222,0.10714579362956478,0.06262700642885077,0.013517936258367058,0.0,0.034169625470422016,0.08491160727208569,0.13620570693438494,0.18576576740328843,0.22743037771566943,0.2777345767633945,0.32903074012953604,0.3803272729126903,0.4316238056958448,0.4828982347098971,0.5302179819793325,0.573408399235551,0.6244464057701404,0.6757429385532951,0.7270394713364494,0.7782322261301724,0.8230945037316282,0.8686275532397492,0.9198620714107455,0.9707596425757186,0.9909303071295015,0.9457988556185999,0.8970331729154069,0.8549611043605236,0.805588399337442,0.7641298387038487,0.7214606713392495,0.6894416449651684,0.6594021843502853,0.6488842889070461,0.6431015609134088,0.6361030467882056,0.6269969708511605,0.6170151643787745,0.6071023682123879,0.5905764634716055,0.567983783041158,0.5501865958880459,0.527432099086238,0.5067606337399713,0.4888513835657513,0.4765084712306562,0.4771063927924555,0.4886295651715149,0.5085072514975568,0.5346622662550249,0.5621410400414772,0.5851257061903175,0.6023048583094894,0.6208218168815391,0.6334383837364048,0.6350480497952211,0.6252058224138066,0.6170851093095338,0.6117142698838318,0.6116707570098754,0.6116930217496903,0.6156801362993334,0.6237818968243216,0.6263359164289906,0.6358263150283401,0.6363978191265178,0.6363978191265178,0.6363978191265178,0.6360238582545374,0.6272257830629084,0.6172684771299366,0.6075247610262573,0.5995336696025388,0.6032265386905369,0.6230072355805261,0.6495078215729126,0.6685171616388206,0.6784807649525715,0.6792888567649706,0.6462454713166155,0.5971940572143568,0.5459016202231552,0.4946050874400012,0.44330855465684604,0.39255234440883013,0.3507017689381562,0.303382254348334,0.26994672300852685,0.2339173509872754,0.19694390005607487,0.15275180546935951,0.10707250928415935,0.05819616542587247,0.03346695467511984,0.052734056648242156,0.10236669801188936,0.15362530182731704,0.19997411971992451,0.24400846490160633,0.2951886041346008,0.3464851369177546,0.39778166970090867,0.4490453136771786,0.49567301553972554,0.5394525261851919,0.5906042697752052,0.6419008025583595,0.6931973353415155,0.7444902734116776,0.7937253719589661,0.8354720017877404,0.8860199526782866,0.9373164069171711,0.9877384598587589,1.0,0.9562102984522478,0.9137114417044612,0.8644783987512055,0.8229979093608843,0.7728156108241926,0.730345440239295,0.701724918514766,0.681398969812776,0.6699932059968292,0.6597367813057198,0.6496421186150663,0.6464610720208839,0.6360568363262229,0.6224052582791049,0.6028004450596076,0.5862983053134574,0.5702618194470435,0.5478117448435136,0.5298025529388934,0.519795176748248,0.5147612288633461,0.5265237342496438,0.5471946523207594,0.5728042462669527,0.5963660302694311,0.617909675472387,0.6394780951531707,0.6600794192720225,0.6711526173055762,0.6616965183682124,0.6510895605720068,0.64088310689981,0.6283596253730237,0.6240608990172678,0.6240342880681964,0.6240342880681968,0.6242731496091691,0.6328448122603487,0.6452236267252363,0.6492720270714623,0.658220143559558,0.6549138061378774,0.6487340069680654,0.6411035727640866,0.6243008084629196,0.6123616553400426,0.6051428874298703,0.5888482139597153,0.5965974333529012,0.6167952584349421,0.6409015517336334,0.6598497601483246,0.6698901576804768,0.6617475143364988,0.62938212174185,0.5797420519393599,0.5284472234349358,0.4778035627490791,0.43602476840407234,0.3869171059044745,0.3356246233606395,0.28441648303270384,0.23962641711183696,0.19404612562889856,0.14280224079355675,0.09239289389206551,0.05076443052478519,0.01210402317699355,0.01876007667600077,0.05687960836869754,0.10745686979020252,0.1587534025733568,0.21004993535651106,0.2613211449562993,0.30843431150726164,0.35180057753638994,0.40287253543080714,0.4541690682139614,0.5054656009971152,0.5567596095541507,0.6062941828135151,0.6479652260291426,0.6982885428684615,0.749584733854566,0.8008812666377212,0.8520795511674719,0.8970189764003877,0.9412058589948424,0.9484292982563707,0.9003855580197282,0.8531735426792255,0.8099562890430962,0.7638422158478169,0.7200685136736289,0.6786873393407262,0.6490224564768945,0.6328625906494367,0.6200470636532662,0.6110942899302181,0.6012676057310173,0.5936647900578103,0.5806396197748431,0.5649686200497523,0.5481226783544648,0.5271082967329397,0.509917835736631,0.4894775783373644,0.46737352275972577,0.4543863001256516,0.45117773372564884,0.46172433900535914,0.48370216430460955,0.5036331515838162,0.5242106485024871,No
0.4798706704490274,0.4772437922013928,0.4815177627640934,0.4814572995917157,0.47559903424197425,0.4707790025680092,0.47072596507454634,0.46794984994723166,0.46022961004670737,0.456070471993679,0.4490189441990282,0.4434796188593422,0.44559077547269843,0.4464250043496405,0.45690714176477676,0.4525912920896762,0.44248471488901964,0.4221764293089709,0.4080023622695077,0.40467725659844844,0.38578335877266423,0.36086184835816515,0.3312419913002025,0.300536529869315,0.2667300067376235,0.2323395481755175,0.19555090194059832,0.16093882748404043,0.124310156782661,0.08954066705132391,0.052017497337414564,0.013672341617426476,0.0,0.02384370342529496,0.05297705935915609,0.08357625016931003,0.11693279339341944,0.15073605713382365,0.1788963422543035,0.21330118889490057,0.24330853419329856,0.26982774974776524,0.2907493140782529,0.3135394053212879,0.3255982590591606,0.34552397427962966,0.35857605585277397,0.3760157253830134,0.39442219743493134,0.41825151122132964,0.4514556578565121,0.4925849369978921,0.538333042614366,0.5828611327947746,0.6174568843451205,0.6454644561406271,0.6765475611298823,0.7104806376511421,0.7484481134195309,0.7937341565737484,0.8328412696858845,0.874577015975933,0.9148131407651543,0.9433996439364609,0.938917625057841,0.9169876396393564,0.873384327453254,0.8276039328913884,0.7843023008030161,0.7464458006244761,0.7010608209900666,0.6552713324194506,0.6094818438488341,0.5636923552782176,0.5179063108833812,0.4739519741225857,0.4365171611550187,0.3913658662884312,0.34557637771781446,0.29978688914719864,0.25399783238122486,0.20913517767413503,0.17480894285030968,0.18260620880016742,0.22723745936454565,0.2730267984241108,0.3186216059489313,0.3573987730848953,0.3943116543594529,0.43076219827362294,0.4552606183660013,0.47327561895719494,0.4812674147369751,0.4747666160770767,0.4612720077229844,0.4490497623556948,0.43454225139522507,0.41562034585608587,0.42229472204896434,0.4320097620893091,0.4469837822022986,0.4441026308233733,0.44592963171919187,0.44045190310210014,0.44795318201906187,0.44087269069456303,0.4382403903519221,0.4360195155927653,0.43187572470799207,0.43241221214992676,0.427431384087672,0.4231091931175488,0.41433693294645746,0.41176538615363145,0.40615893741428577,0.39679474218404165,0.3878469508481215,0.39105124736460417,0.4022120753540064,0.41113108745691895,0.41995711096413624,0.42711363503806976,0.4218345595063431,0.41231834835916925,0.39064250665125155,0.3631768172539318,0.3337210242077635,0.30118852108091154,0.2668120032241532,0.23102887326805743,0.19475889669776292,0.1622899484645539,0.13882824193816723,0.10374029558164888,0.07123026931326448,0.03782778620211058,0.02341543914190991,0.045541320827659826,0.07576920515569752,0.10627983814544129,0.1368153607665228,0.16732359743340552,0.19592743440093607,0.22797131018120909,0.2596914987743837,0.2806425104168859,0.30005186362112757,0.32309505290410634,0.3375742954367138,0.35261919043899814,0.36561271533668305,0.3881547319266858,0.4130751101797714,0.444084916646154,0.4785823971110088,0.5154340388427756,0.5561415426049079,0.5950841149212986,0.63703263779859,0.6827959971631974,0.7285854857338139,0.7743749743044308,0.8200964083889764,0.8605405535101776,0.9009759225544021,0.9447942213059157,0.981023694951578,1.0,0.9786196096090958,0.9384953741281801,0.8986932767325286,0.85299866942893,0.8072091808583135,0.761419692287697,0.7156303051336677,0.6703473068926433,0.6325487317950227,0.5890887556735547,0.5433037147272939,0.4975142261566774,0.4517247375860609,0.40593524901544553,0.36014576567248824,0.31474939567276006,0.2767427069294215,0.2450845448828043,0.2713078283918271,0.3084663872075275,0.3517819766342709,0.37895984064695476,0.41292742388118286,0.45775666324350195,0.49277089309521127,0.5172409024815476,0.5207761477744346,0.5141412608013864,0.5061015346302697,0.4871076902011575,0.47763673292797315,0.46163346578579634,0.4364363518580632,0.4274640938144372,0.4452768644317653,0.45472046865612836,0.46038908655484745,0.46590607049637467,0.4602367586817673,0.4599014319736716,0.4599014319736716,0.4599014319736716,0.4598984237998949,0.458241655104882,0.4555686895764337,0.4590429069181252,0.457238137930696,0.45637812592904115,0.44910367248183736,0.4410949139982887,0.42882636834697085,0.4274181220124347,0.4303419920379856,0.4380309248136949,0.44473748915278,0.453536695439096,0.4609090542375158,0.46935521882250564,0.4625940561601598,0.44714814937432146,0.4264585937599985,0.4021937084212832,0.37091052495354027,0.33812702958890517,0.3036309915970403,0.2848427395870967,0.2742366400051557,0.26045773577874165,0.2192599832801172,0.18157272489513665,0.1449482052108153,0.11100708163234296,0.10116139352088327,0.1274600540535744,0.15739542725650413,0.14733076454367078,0.11113185392190217,0.09559922342008509,0.12308209037748097,0.15745234423161802,0.19569252764478073,0.22676558796959712,0.23905777867224764,0.26611827145828637,0.2597257845426655,0.2384929454665905,0.2537829206852633,No
0.393937619432639,0.4155123565799324,0.4462994613714248,0.4649724559926955,0.43563352514274417,0.3944495436924395,0.35077976661045734,0.3110398303423742,0.26753475628394335,0.2244516310252243,0.1845258882141279,0.14053773289556365,0.09628826259466333,0.055663112690660876,0.014947765211972053,0.0,0.03254281653643726,0.07671176153190024,0.12111906250678367,0.1654335493560421,0.20653859837464522,0.24816178066033395,0.2925195195699059,0.33692565493030585,0.37969562678117,0.3939863559221432,0.39667257847985377,0.4245571898470351,0.4571361856685698,0.4879853118473548,0.48313355935808516,0.45549726857980016,0.43464317357606036,0.4082373799425238,0.418819832071414,0.45861012825907715,0.4941780227295926,0.5051816166455729,0.5204961542264834,0.5601197020601962,0.5996863331167361,0.6358905865022457,0.6761852166261069,0.7205443462931622,0.7649516472680455,0.8093583726086655,0.853051776811242,0.8888253530412191,0.9301137749597315,0.9709272664162629,0.9767334993870544,0.9367093684384566,0.8923112002290141,0.8479038992541312,0.8035374067204073,0.7617908111337226,0.7208606948521759,0.6794740888865456,0.6412798692946802,0.6027708018379598,0.5702407807947485,0.5428079412616991,0.5256397855062616,0.5165392674372569,0.5007869345985847,0.47751472372999887,0.45091418676822,0.42265320626203823,0.3947664525677889,0.3692318402357558,0.365777269274943,0.38882968489326347,0.4219717825896942,0.4580028366543308,0.49504282653068526,0.5343479526687367,0.5725715756638057,0.607875986033994,0.6411964506976346,0.6687095402650036,0.6662476353398965,0.6412974246427987,0.6186878955173793,0.5946280776727824,0.5756618585495494,0.5641216987627788,0.5661769227399833,0.5774497988050395,0.5830680847347318,0.578468799669251,0.5751983831212135,0.5749856117014689,0.580136093034439,0.5822169489752309,0.5798646647977268,0.5735088256851029,0.5570319865472559,0.539432533274812,0.5426715802869337,0.5583247211478959,0.5659541942360378,0.5348190575966645,0.49074751881432727,0.4477634983776268,0.407774492314162,0.36391503425663513,0.32527211955086605,0.2954845522070714,0.2658930559676988,0.23630353812936183,0.20608787729635486,0.1701942818214784,0.1276269184804127,0.0832449910782938,0.04056136318496101,0.00615687799431458,0.009056385036239456,0.04556908284631661,0.0896091335048032,0.13401623242688193,0.17842353340176514,0.22272369371431672,0.2636825808605186,0.3054556221545595,0.34982399046488727,0.3942312914397706,0.4386385924146538,0.48304589338953713,0.527453194364421,0.5718604953393043,0.6161488573275091,0.6569883698412993,0.6988881650720875,0.7432609524024265,0.7876682533773096,0.8320755543521929,0.8764828553270763,0.9208901563019598,0.9652467790662498,1.0,0.9816801234169641,0.9389107458644514,0.8945125050473393,0.8510844169869627,0.8113047193823901,0.7675154755714846,0.7231104928029632,0.6794572014955329,0.6401862244749497,0.601675808850608,0.5672423631310122,0.5423133421208111,0.5246477844197399,0.5111984877315614,0.4962743693857489,0.47492513678170306,0.44654794804910763,0.41850478283886655,0.3881645661949988,0.35850498730438224,0.3285853385925586,0.30793017295804387,0.3194610355920881,0.34617266435511823,0.3790034748466244,0.4148758832002499,0.4523399842084838,0.48412607150765,0.5133147194711587,0.5381284214968309,0.5571036087283447,0.5704101909494508,0.5855483206718737,0.5977164408580338,0.6075095463810145,0.6151019571818033,0.6118248805383077,0.604215468505928,0.6024621592035659,0.5960944879513952,0.5965362766684612,0.5969568316800002,0.5915807404061018,0.5710374711792876,0.5623286067511017,0.5734925178996324,0.5911532141189093,0.5776122565018449,0.5393516462277956,0.49591761540683993,0.4561103031464269,0.41294250169266994,0.37242994245873445,0.330163838354044,0.286009653635345,0.24570877350507697,0.20317613266532836,0.15878466102343264,0.11454240685982425,0.07396317916276013,0.03202751977359225,0.0017425843265843621,0.021739514552417127,0.06469763248625365,0.10910120976669896,0.15329943840285326,0.19370244863961078,0.2361122053818176,0.28050170214435993,0.3249090031192439,0.36931198181268826,0.4121308497101102,0.4473761262581369,0.4896691911159586,0.5295942960980506,0.5726724644042116,0.6170738694341931,0.6614811704090771,0.705888471383961,0.7502957723588435,0.7947030733337275,0.8391043127989011,0.8814822315648589,0.8930767677284861,0.8590456540388134,0.815381616763549,0.7750876021194779,0.7330813090797121,0.693299589430086,0.6523798738489555,0.6155650661974399,0.5828116049060328,0.5568047212659784,0.5425105926284786,0.5283128928689609,0.5082837461832164,0.4867644339691121,0.4596642857083841,0.42993286057402497,0.3972232977209424,0.3669655809202638,0.3406555491877709,0.32860746272227653,0.34451820019727425,0.37595650788838947,0.40938110522038934,0.4438958507023654,0.4770024632846263,0.5085099947027576,0.5359280881077952,0.5546517359368459,0.5573403439761038,0.5503603931112944,0.5453369435977278,0.5506952487024042,No
0.6478177058209209,0.6320330831903627,0.6128301031668693,0.5924463022234743,0.5642808740107776,0.5344999478891188,0.4988044559567022,0.4657093846355638,0.4428200805493063,0.4355950916679614,0.42229968941070095,0.3961585093460167,0.36696225322529397,0.3422201570024114,0.34036424603573656,0.3616156214293842,0.3933338362276302,0.42970182195492,0.46592646029787654,0.5032715580616187,0.5415468585095735,0.5769322182657244,0.6080454865198777,0.6332783734060545,0.6465659429026502,0.6551441993459035,0.6613683717109182,0.6578186547071174,0.6561295011258919,0.6648999472638077,0.6710693230615978,0.6726648156292356,0.6651365387990567,0.6518171287746635,0.6593294740031828,0.6643233714736427,0.6763770567259444,0.6829395792870538,0.6618837005589722,0.6220252804084379,0.5788117000009356,0.5365086748264984,0.4900359585757905,0.4434175175330819,0.3976218635919193,0.35653627324158277,0.3108894565246004,0.2642717495612462,0.21765215612307598,0.17103416419858042,0.1253140442180808,0.08424675282941851,0.04137708992689759,0.03575371378457526,0.07652716143416982,0.1205257565420832,0.16261573052891953,0.20905298373688652,0.25567257717505676,0.30227184928584117,0.34651289712940936,0.38841679175640154,0.4348172458628867,0.4814368020298596,0.5280563954680297,0.5746759889062001,0.62129558234437,0.6679151757825401,0.7145347692207105,0.7611543626588804,0.8077724633057906,0.8535749732459068,0.8938969996496724,0.9086820617624871,0.872382280372602,0.8290577640508929,0.7861868833727577,0.7432097087609943,0.7015244108730276,0.6671341517548324,0.6404036618817823,0.6207859609544144,0.6028280493094857,0.5841624251242858,0.5522777855929841,0.523158208925246,0.49261386968152654,0.46010090868237175,0.42495812517723275,0.3936558155997658,0.36135784182188124,0.3414575909093439,0.3462015339277028,0.37244424598621384,0.40865297190237126,0.4456533562628593,0.48252015524272296,0.5190288550366844,0.5540584481042585,0.5887196798709196,0.6181682942142765,0.6355157179706719,0.6456038320257576,0.6547795290969491,0.6552896371554966,0.6502118915086377,0.6512029930986305,0.65451421131412,0.6613152246633001,0.6683847963586889,0.6632509708791294,0.6491170592656732,0.6482592092653943,0.6635616855715571,0.6706707406038768,0.6830472094787077,0.6756950105785102,0.641660254341325,0.5990958212271367,0.5556042606756875,0.513119229179104,0.4666255117796154,0.4200059250502606,0.373389276339126,0.32788736557831977,0.2867877060231223,0.24086028201115772,0.19424170019545695,0.14762210675728749,0.10100264898627598,0.05492620742749732,0.030234340031352835,0.056728133694892824,0.09998046421121909,0.14654173972997508,0.19099745507869592,0.23272280140121893,0.2790831150993097,0.3257026265408457,0.37232221997901593,0.4189403518706529,0.46475438309330763,0.5058158875236092,0.5514688662057419,0.5980864448338188,0.6447060382719889,0.6913256317101593,0.7379452251483294,0.7845648185864988,0.831184412024669,0.8778040054628393,0.9244235989010097,0.9708787824970533,1.0,0.9724380177603207,0.9276667208943867,0.8818620473133094,0.8407736519330353,0.7954623851633198,0.7539482263552009,0.712036646540738,0.6744351779630178,0.6452370836087729,0.6286064935976214,0.6104198649553898,0.5863014049890762,0.5612153044093131,0.5313906605201097,0.501115344746623,0.46950778793548276,0.43680479352825374,0.396737738300068,0.3671296174742964,0.34437830593571683,0.3438895710679233,0.3692066934423891,0.40293809019705984,0.43817138276302714,0.47526590126163337,0.5125700580804748,0.5491941165584437,0.5813188487257512,0.6129313278283381,0.6418828083557355,0.6573561281728442,0.6651757612425058,0.6579401380174534,0.6490438338386808,0.6431407000011335,0.6503688727350849,0.6550016055839296,0.659426750215917,0.6512438993141862,0.6319787690923384,0.6334895779320662,0.6477351390423884,0.6599675303488854,0.6683146884339961,0.6513533322543155,0.6134923009298867,0.5678867270604082,0.5212690888354534,0.4746494953972824,0.4280489242076282,0.3838159146077812,0.3419066902843597,0.2955048255913172,0.24888527054247955,0.2022656771043102,0.1556695178825256,0.11157050081801168,0.06955477222164308,0.023829928721912697,0.0,0.02670436094032358,0.07241545325568854,0.11499091111548754,0.1584785795843775,0.2050553751693941,0.25167496860756355,0.298294562045733,0.3448970869030362,0.38931290815234143,0.43107092473414443,0.47743926651391333,0.5240587869005375,0.5706783803387068,0.6172979737768762,0.6639175672150475,0.7105371606532169,0.7571567540913879,0.8037461301201068,0.8476039317538349,0.8898360027063712,0.9362782070914206,0.9754167597539518,0.9571478483221318,0.9111454533355192,0.8680356678639536,0.8251136435227986,0.7808097555935518,0.7392573285335666,0.6977281973816625,0.6567046898161968,0.6275724065522901,0.606390683288965,0.5904496528735048,0.5638828530155608,0.539946317867787,0.5124261071619849,0.4814126492705233,0.4489884822796928,0.41436723712428103,0.37704678002198144,0.35290152379398654,No
0.9063415799755994,0.8555386737184416,0.7930294759415841,0.7369192663109505,0.6826628187503547,0.6201598074333585,0.5575323055387953,0.49490480364423073,0.4322773017496675,0.3697080011219742,0.3139525589651142,0.25934889126781346,0.19683334415548126,0.13420584226091758,0.07202488393907958,0.045483888114252746,0.0972300433969413,0.1481460653458675,0.20983094477313102,0.2709292230560214,0.31511553608943155,0.32432882952076625,0.3116446921658027,0.2929477564094429,0.29043913361560536,0.2719765134744714,0.24200755928348094,0.2279417443809506,0.2540345731333882,0.28443236412427186,0.29991838377421276,0.3094485728326042,0.2984658141823666,0.2971851786418669,0.29613207611652514,0.2894502966692465,0.29974720010191946,0.31143471887103047,0.31604291755277725,0.33431487560750295,0.34228796055866706,0.34232207264773074,0.3352808759890151,0.31912799805605063,0.2904802882287929,0.2569528784972359,0.22191031552981588,0.18659980419949562,0.149477134946022,0.11726759863234815,0.10873723584885475,0.1306951172136941,0.15423674404180554,0.17842939273180258,0.20941774705018013,0.2399532841801375,0.2619643342621969,0.2773999431831631,0.2862000831330844,0.30102593281221735,0.3068923748614667,0.3145953276846245,0.33066323343078485,0.36513292364137984,0.41077360297509236,0.4637214050500589,0.5192043640860518,0.5817561506112208,0.6443836525057844,0.7069368070041246,0.7625821351115389,0.8173293000958521,0.8796930908861333,0.9336810874997683,0.9860857654577542,1.0,0.9630834094176897,0.9019828045859946,0.839356064064332,0.7767361663868484,0.717652357751208,0.6660086428160015,0.6039121064701454,0.5412846045755821,0.478657102681018,0.41602960078645435,0.3534020988918902,0.290776789475085,0.23005565648660609,0.17955590881281402,0.15006756618947037,0.19699336019251312,0.24940140172700298,0.3060867731247865,0.35175865628825953,0.36702858808450367,0.35537719060219697,0.3431159607158927,0.3313322770193521,0.3039240000330561,0.2754744013051189,0.2753886063925135,0.30713693550581667,0.3255735021339987,0.32127611680949864,0.31239474064332695,0.31069385685474993,0.3000392156959113,0.3101486870416821,0.31275833441715317,0.3236382457308382,0.32730883684311873,0.3273171535273156,0.3271831001349561,0.31906247252878295,0.302834283154056,0.28203635930508764,0.25388609154116937,0.21612026228675507,0.17832723319603572,0.1409008283504498,0.10708569605541918,0.08207655337106257,0.08173954715433718,0.11119901825386291,0.13711345407304387,0.16643954777477488,0.19632093316686428,0.21455938525592932,0.2349678492630649,0.25143710495870764,0.26420855016193734,0.273398239493964,0.29211313026311414,0.3060311310892465,0.3358341215063807,0.38153512572063875,0.42288173500284376,0.4641060309053153,0.5160038609623712,0.5735146609063189,0.6343928196400492,0.6851142984506464,0.7462773945181271,0.8033110538961967,0.8567074989927761,0.9150478905472297,0.936661577067115,0.8988690587425943,0.8383951740091056,0.7877152519852335,0.7270975895324132,0.6644717191512095,0.6018442172566458,0.5392167153620826,0.4765892134675176,0.41403256544043554,0.3584803242421901,0.3036683244628664,0.2411452558733318,0.17851775397876812,0.11589025208420489,0.053273243201736875,0.0,0.027910694740964193,0.08349257803651922,0.1379042945983593,0.20025631367441044,0.2545606773960216,0.3050556083918181,0.3387368595869531,0.3402685927236955,0.31795592093807645,0.29811411354936146,0.28649957665494963,0.2623765245788676,0.2444835869521298,0.264146577936625,0.28819835448968645,0.29618154731111,0.28481903419748456,0.2821218321914274,0.28211900357510666,0.28242083773694926,0.2922300425579758,0.2971581100061087,0.29899198805392313,0.31087309477849123,0.3056081306384062,0.29719023711521375,0.28732598574254675,0.2577168822437601,0.22640374279864917,0.1942910026817457,0.15653002069739452,0.11883911201062736,0.08701138258118535,0.08335606280056629,0.10851092821918717,0.1383002478252351,0.163767646758608,0.1947624095855791,0.22192761579695297,0.2395662225907449,0.2584678681200856,0.27118428262613214,0.2818586181514191,0.2911307927586244,0.3067488673437966,0.3256901520117781,0.3645500809114486,0.42438475225611905,0.47613234283699724,0.5350665062366531,0.5921628925608449,0.6455011741707737,0.7078856208988178,0.7666024687631809,0.8185827856032262,0.8805697791283467,0.9317080738929708,0.952602701178662,0.9211440871044791,0.8719881282213113,0.8107003969682882,0.7480735259255558,0.6854460403461258,0.6232819521776003,0.5712235176285994,0.5126169835846119,0.45000206643680674,0.38737456454224306,0.32474706264767983,0.2621196314520269,0.20003801170544877,0.14822148522876155,0.10379692038151722,0.14002137225109612,0.20040549585696876,0.2510980893070105,0.3113394535388192,0.3470806920502487,0.3456523674714371,0.3360971413251672,0.3140376012029149,0.2961145957907414,0.2742323612632176,0.25411799823329684,0.2661783507367024,0.29669714241316436,0.32301229300138345,0.3273068142679225,0.32730384838485094,0.32331921992965773,0.31271009905167135,No
0.27266336549564496,0.29607064405569483,0.3219773899066618,0.3520331221099051,0.3876545708736914,0.4273879304429036,0.4714552666744716,0.5150391974798363,0.5614295414088666,0.6064075863363729,0.6561024717656578,0.7003337588830414,0.748336422945169,0.7953920601567228,0.8404121893564043,0.8901024749185888,0.9340697709219439,0.9726869565648186,0.9999999999999998,0.9870354845768616,0.9416597899026333,0.8919273273498802,0.8479121307539408,0.7995634018536171,0.7493054043179634,0.699041056215363,0.6487769461349331,0.5989316186062983,0.5548361180672741,0.5066292127789738,0.4566880136616298,0.41595750949267196,0.3730317901644691,0.3228899623455992,0.2726256142429988,0.22236162878007693,0.17267959243695508,0.13878721802469562,0.16084814512687218,0.21012160029842342,0.2574166326677543,0.30222333309895655,0.3497311743376159,0.38986159643881635,0.4151559939996714,0.4196862309872711,0.4163667348790294,0.39678282331199966,0.3806125366052229,0.3644008313903946,0.3696466738578428,0.38387717979246694,0.3932976186729593,0.38897354869337564,0.3923928967820618,0.39158691677887414,0.3865988376761049,0.3767934074313908,0.3689412104863512,0.3721219234994211,0.38294345449085143,0.38938620780853306,0.38273674482490394,0.3615589031682378,0.33608563802974656,0.29954019147332733,0.26124333500778096,0.22008876143376277,0.18718590986348405,0.1462947041836289,0.10714212334353257,0.07613566126629912,0.04009802509813709,0.005654804316854278,0.0,0.03040860011783364,0.06912438364208762,0.10519064300881298,0.14101812968211136,0.17291494555268971,0.20103572547785342,0.2284439497404478,0.2576831426419215,0.28378626184923395,0.3103558770459123,0.3394439004564578,0.3766743666313095,0.4177552915693472,0.4661857947636614,0.5150173140758245,0.5582891056872066,0.5968308625395022,0.6303029642373363,0.6676522549810757,0.7158069017162141,0.7625492597132029,0.807842843802228,0.8561131864354885,0.9000421485845707,0.9457754547719135,0.9775597542410208,0.9621870898052827,0.919957018894703,0.8720175691147023,0.8217661627238053,0.7715615826651128,0.7251837157619259,0.6795260525195632,0.6293633339637503,0.5790989858611504,0.5288346377585496,0.47857029339581114,0.42842073977283346,0.38291287374372196,0.3363803648629504,0.2861674608958942,0.23590311279329335,0.1856387646906934,0.1356094885540542,0.10716342710826976,0.144735228333702,0.19364973149861764,0.237324827788854,0.28634295461675574,0.33030131039787336,0.3743972113902876,0.4057618369738212,0.4149999451718649,0.41755204853154515,0.40312318568895456,0.38024224057781386,0.3694963381182832,0.38163267475147267,0.39348275446709624,0.39439915616198995,0.39440041572316753,0.3944002409127758,0.39403867163983364,0.38767195594533077,0.3796379959406735,0.38131249167153336,0.3908614830883739,0.3974427190001715,0.3911721131721848,0.3711637924718598,0.3410627941729698,0.3066934044912153,0.2673267527994798,0.22783533259955768,0.18758930165177157,0.14979131651173128,0.11789816383845375,0.07764971765924589,0.035409412010632746,0.012740720105461234,0.03323259758018482,0.06591105904628547,0.100351989339176,0.1360011219248145,0.17526582229981935,0.20377166153719672,0.22994151926303275,0.2559200542467819,0.27784143091819447,0.30446217916136686,0.3358906612273982,0.37244429508932764,0.40941149351263717,0.4416334383531271,0.48678410326376587,0.5306294011264403,0.5782682366184522,0.6219638719065776,0.6710004719798224,0.719166698942336,0.7578295941611115,0.7964625551761915,0.8435194590032933,0.8879957695472476,0.9359211485861494,0.9517711056316063,0.9210994429118167,0.8735755930166216,0.8233481682970287,0.7769145173371708,0.7426848889114221,0.6983689539990638,0.6482336766680348,0.5979693285654348,0.5477049804628349,0.49744063236023495,0.447176284257633,0.3969190334825399,0.34846850807659546,0.30453346352884547,0.2547731821074686,0.20450910739497785,0.1542447592923779,0.10409619243253654,0.06844062088076974,0.09839920730542451,0.14837432437972642,0.19452889879827384,0.24039356496587305,0.28823415118393436,0.3319575699332964,0.37297149085087766,0.39874129679051573,0.40696027271147694,0.40760386156012807,0.3865977344940119,0.3636347754403526,0.3625800384618558,0.3810178424950017,0.3936670957276531,0.39439994652649,0.39440041572316753,0.39440041572316753,0.39440041572316753,0.39433273915103273,0.3903212278858841,0.38583384806942655,0.3859326913082419,0.3912455372853223,0.39429353893280106,0.3884256599591627,0.3680870815027446,0.3381556848982421,0.3015369569072983,0.25946563893109076,0.2163030610545944,0.1744256594744935,0.13292432630843343,0.09363375129527385,0.05432714693191265,0.02294834641331689,0.03191662210595636,0.06596042067307883,0.08979084987325514,0.11419864812304859,0.15187275821029855,0.1880060998271058,0.22454344646508084,0.22339677412706838,0.18789030464806178,0.1652002959085732,0.1377469445325732,0.1070538311802518,0.11824467077079337,0.148409928601837,0.18055987046719713,0.2099070213193237,0.23625934310415775,0.2646680039760134,0.28833334067200145,No
0.767838470040471,0.7613760111353547,0.7575746544650546,0.7660777581352118,0.7762197590866708,0.7688791055892361,0.7679920259989614,0.7679912939885629,0.767845719840974,0.7614755592788667,0.7558530177257279,0.7474628202284195,0.7484145270880602,0.7498734227917392,0.7340091629499903,0.7316378776867623,0.727477128024016,0.7391660005584049,0.7484677916100846,0.7615963059500019,0.7648947874179528,0.760315440010531,0.7676151126933142,0.7671219525578588,0.7488738151259844,0.7110219428476914,0.6672142263925236,0.619840827862876,0.5799587982652872,0.5334056918804533,0.485216806262617,0.4372480103020344,0.39613415829405785,0.351352309318016,0.30317639324073853,0.2549855146722304,0.20679463610372206,0.15860375753521372,0.11041287896670537,0.06222879114492885,0.017408766772659012,0.0,0.026263403100141858,0.0730697949872463,0.11952121506596125,0.15942467657730996,0.20692112512137695,0.25511166880460867,0.303302547373117,0.35149342594162536,0.3996843045101337,0.4478602205874107,0.4926420695634528,0.5337559215714289,0.5817247175320119,0.6299155961005203,0.6781064746690282,0.726297353237537,0.7744882318060453,0.822679110374553,0.8708261614370938,0.9124726661179321,0.9049380025258171,0.8669218046756795,0.8270429030340865,0.7919299795556431,0.7604400765329513,0.7333376239548559,0.7250777911820054,0.7193451455894977,0.7095658417874569,0.6952718263949873,0.6796473859342207,0.6641884593354137,0.6416630830993844,0.6212556583208106,0.5921942082269924,0.5637281381819561,0.5357224433352301,0.5090806983412042,0.4802077676969545,0.4501026338451797,0.4391150224696079,0.4548379948986756,0.478336655612156,0.5067534037053214,0.5401956824997629,0.5806915459388449,0.6146822498851334,0.6492192415827409,0.678316905383983,0.7032061081417114,0.7211919197745476,0.7250823289284065,0.7250971738032588,0.7236463225746586,0.7144086421159666,0.7059722816673877,0.7128933621197233,0.7206397275410237,0.7300947626043093,0.7396094266811977,0.7463769331316168,0.747334187729868,0.7556167609806386,0.7572654998250163,0.757268113718534,0.7567743838363306,0.7468407214908062,0.7366934389512292,0.7457053861533138,0.7576733273020937,0.7715236961791607,0.786726528634236,0.7894317400127306,0.7894371315055491,0.7884091957323103,0.7645497927583389,0.7256716342328116,0.6789394553625892,0.6386018794583244,0.5928178469905574,0.5446354026127935,0.4965635181843788,0.4543877829271217,0.4107368761732171,0.3625949895909151,0.31440411102240673,0.2662132324538984,0.21813603202398468,0.1758857187454992,0.13231229784751308,0.084173440286746,0.03731837718149689,0.011136071281417026,0.03570711743336563,0.0808913531038451,0.12121879002946279,0.1689484377805497,0.21713927495874152,0.26533015352724987,0.3135209653068409,0.36139588252418986,0.40212299495261106,0.44738014270957804,0.49556144511763667,0.5437523236861452,0.5919432022546536,0.6401340808231619,0.6883249593916703,0.7365158379601786,0.7847066591466594,0.8325965422948696,0.8734214590154057,0.9185676902682574,0.9654936246201495,0.972585233449607,0.9299356715743505,0.889742066326717,0.8487111678204879,0.8116120824806823,0.7822976332716323,0.7591267980180465,0.7450386501367117,0.7357445539521523,0.7268503405837723,0.7157991264178027,0.7018872782358143,0.6840217984986945,0.6647413022007382,0.646561982230857,0.6204734577066937,0.5924736181601591,0.5620698993083904,0.5352012511832596,0.5079941446533449,0.4908202505097503,0.49262338915486636,0.5130084582101415,0.5424254713318417,0.5774924995444417,0.6098793280238899,0.6420136220571588,0.6757896128817737,0.7091979391153684,0.7330401710271603,0.747437046836184,0.7566625457198424,0.7558689852035689,0.7472350268649715,0.7390949249487477,0.7358359973622821,0.7358798121632704,0.740737650606871,0.7502241380429098,0.7570924945803241,0.7572681927364082,0.7572685277841282,0.7580155765518561,0.7655154066327772,0.7607807305343128,0.7671276743889093,0.7602302729438628,0.7482238492135116,0.7375748587301743,0.7416490683921615,0.756187961717274,0.7669545751643227,0.7841500150483718,0.7918674326373878,0.7947967404397926,0.7893267218586877,0.78056579400659,0.7544045394849215,0.7112570928264972,0.6667817854451161,0.6254091646887376,0.5774354723277046,0.5292478128325435,0.482827183013417,0.4474986931279752,0.4155095181982731,0.37072692435519716,0.3385442218369017,0.2937076199156894,0.24724182169727071,0.20730842109922154,0.15986496381127702,0.11167730874882054,0.06518103641350392,0.02967026215259483,0.03223924072578277,0.07170388765610713,0.11476086559067245,0.16289299803607693,0.21108387660458283,0.2592747551730912,0.30746563374159974,0.35565566354598044,0.4029177389140748,0.4427407202787552,0.4895076315755347,0.5376969253319865,0.5858878039004949,0.6340786824690032,0.6822695610375116,0.7304604396060199,0.7786513181745283,0.8266849071831206,0.8685482988570383,0.9125316038176627,0.9606719424554726,0.9999999999999998,0.9761899514374057,0.9326319887053371,No
